# 80 rows of flux data
# 12 columns of flux data
# 
# total cross-sectional flux  1.998328e+00 /m^2/yr
#
#                             +x ram      -x wake      +y port -y starboard    +z zenith     -z nadir        Earth          Sun     anti-Sun      rot (x)      rot (y)      rot (z) 
# average speed (km/s)         43.54        11.43        29.04        29.25        31.51        31.40        37.07        29.09        29.19        30.55        36.52        37.41 
# total flux (#/m2/yr)  1.050766e+00 4.144221e-02 3.736090e-01 3.701954e-01 5.770875e-01 5.865943e-01 6.081295e-01 3.748154e-01 3.689865e-01 1.498891e+00 1.733677e+00 1.477485e+00 
# velocity (km/s)
     0.5                0.000000e+00 0.000000e+00 0.000000e+00 0.000000e+00 0.000000e+00 0.000000e+00 0.000000e+00 0.000000e+00 0.000000e+00 0.000000e+00 0.000000e+00 0.000000e+00 
     1.5                4.781294e-05 4.920664e-05 4.447365e-05 5.304142e-05 4.421180e-05 3.165832e-05 4.285825e-05 4.447052e-05 5.304160e-05 1.363078e-04 1.333975e-04 1.488396e-04 
     2.5                3.643527e-04 2.593712e-04 3.010069e-04 3.225750e-04 2.704956e-04 2.572127e-04 3.211071e-04 3.011027e-04 3.224195e-04 9.071422e-04 8.835601e-04 9.656054e-04 
     3.5                1.089931e-03 6.728140e-04 9.054056e-04 9.053428e-04 7.949814e-04 7.899470e-04 9.882638e-04 9.058661e-04 9.048051e-04 2.671185e-03 2.599176e-03 2.771040e-03 
     4.5                2.040531e-03 1.257271e-03 1.854720e-03 1.870284e-03 1.675306e-03 1.715365e-03 2.017635e-03 1.855700e-03 1.869390e-03 5.588671e-03 5.209675e-03 5.494795e-03 
     5.5                2.644057e-03 1.688115e-03 2.865877e-03 2.844939e-03 2.721406e-03 2.723157e-03 2.984105e-03 2.867084e-03 2.843858e-03 8.763220e-03 7.609341e-03 7.892910e-03 
     6.5                3.281102e-03 2.659152e-03 4.086693e-03 4.015071e-03 4.018822e-03 4.033382e-03 4.064700e-03 4.087456e-03 4.014346e-03 1.270410e-02 1.098427e-02 1.105626e-02 
     7.5                3.836605e-03 3.092745e-03 5.193993e-03 5.008741e-03 5.224902e-03 5.450872e-03 5.147073e-03 5.194889e-03 5.007859e-03 1.642452e-02 1.389124e-02 1.358923e-02 
     8.5                4.369685e-03 3.691692e-03 6.238418e-03 6.183516e-03 6.734352e-03 6.662934e-03 6.042545e-03 6.239247e-03 6.182722e-03 2.029781e-02 1.699015e-02 1.626903e-02 
     9.5                4.994680e-03 3.860804e-03 7.228943e-03 7.002742e-03 7.863469e-03 8.153232e-03 7.036329e-03 7.230353e-03 7.001439e-03 2.379184e-02 1.971469e-02 1.832182e-02 
    10.5                5.768411e-03 3.721800e-03 8.312527e-03 8.164853e-03 9.565301e-03 9.621959e-03 8.096704e-03 8.314962e-03 8.162390e-03 2.803818e-02 2.281768e-02 2.061994e-02 
    11.5                6.656060e-03 3.425789e-03 9.324090e-03 9.027547e-03 1.071138e-02 1.092572e-02 9.292506e-03 9.328097e-03 9.023825e-03 3.146835e-02 2.536462e-02 2.267385e-02 
    12.5                7.222693e-03 3.148928e-03 9.986132e-03 9.754062e-03 1.205945e-02 1.231206e-02 9.939611e-03 9.991051e-03 9.749234e-03 3.469200e-02 2.782078e-02 2.401693e-02 
    13.5                7.212585e-03 2.834692e-03 1.020571e-02 1.002332e-02 1.235312e-02 1.289077e-02 1.017092e-02 1.021088e-02 1.001801e-02 3.576858e-02 2.851018e-02 2.427616e-02 
    14.5                8.128888e-03 2.303522e-03 1.070086e-02 1.029740e-02 1.347453e-02 1.357816e-02 1.087145e-02 1.070795e-02 1.029055e-02 3.779534e-02 3.033464e-02 2.527525e-02 
    15.5                8.513296e-03 2.009993e-03 1.080495e-02 1.056170e-02 1.401394e-02 1.418015e-02 1.112287e-02 1.081286e-02 1.055404e-02 3.901235e-02 3.145532e-02 2.575748e-02 
    16.5                9.036454e-03 1.843071e-03 1.123702e-02 1.110524e-02 1.492598e-02 1.542130e-02 1.146399e-02 1.124552e-02 1.109653e-02 4.140828e-02 3.342928e-02 2.677010e-02 
    17.5                1.025438e-02 1.452341e-03 1.128664e-02 1.102568e-02 1.530899e-02 1.572652e-02 1.189221e-02 1.129732e-02 1.101529e-02 4.191313e-02 3.440474e-02 2.730438e-02 
    18.5                1.041461e-02 1.069139e-03 1.137970e-02 1.107852e-02 1.591720e-02 1.588993e-02 1.199318e-02 1.139107e-02 1.106752e-02 4.265251e-02 3.503574e-02 2.732224e-02 
    19.5                1.081494e-02 7.900143e-04 1.101559e-02 1.088501e-02 1.517993e-02 1.586615e-02 1.189110e-02 1.102745e-02 1.087288e-02 4.162116e-02 3.430025e-02 2.688535e-02 
    20.5                1.128043e-02 5.891689e-04 1.065505e-02 1.053788e-02 1.536593e-02 1.593430e-02 1.158849e-02 1.066775e-02 1.052499e-02 4.126643e-02 3.458190e-02 2.641951e-02 
    21.5                1.195673e-02 4.201391e-04 1.082809e-02 1.038563e-02 1.583402e-02 1.556089e-02 1.198436e-02 1.084231e-02 1.037224e-02 4.135841e-02 3.495556e-02 2.684263e-02 
    22.5                1.257622e-02 2.446927e-04 1.036094e-02 1.040985e-02 1.528122e-02 1.627333e-02 1.168273e-02 1.037547e-02 1.039487e-02 4.112409e-02 3.518239e-02 2.665702e-02 
    23.5                1.179481e-02 1.426385e-04 9.700362e-03 9.421964e-03 1.460629e-02 1.450482e-02 1.095748e-02 9.714477e-03 9.408195e-03 3.789341e-02 3.243735e-02 2.456757e-02 
    24.5                1.302587e-02 9.741592e-05 9.525036e-03 9.435595e-03 1.460136e-02 1.516859e-02 1.104408e-02 9.540478e-03 9.420098e-03 3.825292e-02 3.356019e-02 2.514093e-02 
    25.5                1.258883e-02 6.023357e-05 8.756033e-03 8.799534e-03 1.336786e-02 1.417019e-02 1.029411e-02 8.770854e-03 8.784373e-03 3.541807e-02 3.116923e-02 2.348395e-02 
    26.5                1.371757e-02 3.412171e-05 8.779980e-03 8.700684e-03 1.376879e-02 1.404243e-02 1.054326e-02 8.796206e-03 8.684165e-03 3.554099e-02 3.197603e-02 2.414190e-02 
    27.5                1.288825e-02 1.754378e-05 7.994731e-03 7.828329e-03 1.265798e-02 1.280292e-02 9.745346e-03 8.010406e-03 7.813204e-03 3.244330e-02 2.930911e-02 2.209862e-02 
    28.5                1.355297e-02 5.416318e-06 7.679573e-03 7.507141e-03 1.242523e-02 1.276425e-02 9.631757e-03 7.695815e-03 7.490964e-03 3.172272e-02 2.941419e-02 2.203899e-02 
    29.5                1.377905e-02 3.757963e-07 7.102373e-03 7.115117e-03 1.184944e-02 1.231368e-02 9.092931e-03 7.118639e-03 7.098410e-03 3.009614e-02 2.856793e-02 2.135547e-02 
    30.5                1.295851e-02 0.000000e+00 6.665822e-03 6.520019e-03 1.126043e-02 1.130572e-02 8.584286e-03 6.681535e-03 6.504723e-03 2.807254e-02 2.667885e-02 1.987416e-02 
    31.5                1.349700e-02 0.000000e+00 6.294739e-03 6.208806e-03 1.092487e-02 1.114965e-02 8.415583e-03 6.311024e-03 6.192793e-03 2.716718e-02 2.643576e-02 1.973193e-02 
    32.5                1.338250e-02 0.000000e+00 5.352603e-03 5.414848e-03 9.245136e-03 9.688883e-03 7.922492e-03 5.368492e-03 5.398711e-03 2.338186e-02 2.415820e-02 1.865459e-02 
    33.5                1.364571e-02 0.000000e+00 5.498516e-03 5.377705e-03 9.859746e-03 9.837944e-03 7.855860e-03 5.514941e-03 5.361476e-03 2.400660e-02 2.449594e-02 1.863706e-02 
    34.5                1.364287e-02 0.000000e+00 5.179705e-03 5.202377e-03 9.553499e-03 9.746290e-03 7.569140e-03 5.195778e-03 5.185802e-03 2.334815e-02 2.415175e-02 1.826234e-02 
    35.5                1.253547e-02 0.000000e+00 4.646865e-03 4.778413e-03 8.106917e-03 8.770644e-03 6.951399e-03 4.661633e-03 4.763182e-03 2.066387e-02 2.147214e-02 1.666400e-02 
    36.5                1.640340e-02 0.000000e+00 5.393739e-03 5.010756e-03 1.045207e-02 9.644390e-03 8.522370e-03 5.414615e-03 4.992379e-03 2.387803e-02 2.644315e-02 2.043847e-02 
    37.5                1.407842e-02 0.000000e+00 4.374893e-03 4.637340e-03 8.235673e-03 9.025656e-03 7.073188e-03 4.390630e-03 4.619386e-03 2.060755e-02 2.270656e-02 1.762169e-02 
    38.5                1.727670e-02 0.000000e+00 4.872898e-03 4.896870e-03 9.432558e-03 9.733424e-03 8.412745e-03 4.893455e-03 4.876083e-03 2.266306e-02 2.631470e-02 2.079978e-02 
    39.5                1.576976e-02 0.000000e+00 4.473356e-03 4.379278e-03 8.716338e-03 8.569503e-03 7.750316e-03 4.492454e-03 4.360638e-03 2.051189e-02 2.384309e-02 1.895061e-02 
    40.5                1.630280e-02 0.000000e+00 4.361816e-03 4.413127e-03 8.637491e-03 8.825815e-03 7.709387e-03 4.381007e-03 4.393304e-03 2.054467e-02 2.435868e-02 1.929688e-02 
    41.5                1.970415e-02 0.000000e+00 4.592644e-03 4.491679e-03 9.278638e-03 8.986389e-03 9.113085e-03 4.616549e-03 4.468431e-03 2.140297e-02 2.750628e-02 2.257257e-02 
    42.5                1.843214e-02 0.000000e+00 4.246905e-03 4.327996e-03 8.227375e-03 8.581215e-03 8.457634e-03 4.268976e-03 4.305957e-03 1.993221e-02 2.545981e-02 2.109955e-02 
    43.5                1.711458e-02 0.000000e+00 3.916186e-03 3.769401e-03 7.764463e-03 7.501296e-03 7.871810e-03 3.936820e-03 3.749079e-03 1.797828e-02 2.335806e-02 1.943959e-02 
    44.5                2.233258e-02 0.000000e+00 4.450770e-03 4.706248e-03 8.732766e-03 9.151293e-03 9.792223e-03 4.476992e-03 4.679026e-03 2.123088e-02 2.924276e-02 2.492977e-02 
    45.5                1.928511e-02 0.000000e+00 3.991754e-03 3.976568e-03 7.946351e-03 8.130201e-03 8.619643e-03 4.014792e-03 3.953455e-03 1.890864e-02 2.551616e-02 2.154393e-02 
    46.5                2.242814e-02 0.000000e+00 4.305741e-03 4.147107e-03 8.697319e-03 8.181556e-03 9.917732e-03 4.333190e-03 4.120885e-03 1.983419e-02 2.858397e-02 2.464503e-02 
    47.5                2.401670e-02 0.000000e+00 4.132657e-03 4.400254e-03 8.078960e-03 8.594156e-03 1.031339e-02 4.160539e-03 4.370663e-03 1.981502e-02 2.983851e-02 2.619587e-02 
    48.5                2.159030e-02 0.000000e+00 3.724114e-03 3.755047e-03 7.184121e-03 7.249082e-03 9.364174e-03 3.749781e-03 3.729047e-03 1.728345e-02 2.655267e-02 2.350642e-02 
    49.5                2.663119e-02 0.000000e+00 4.438773e-03 4.272428e-03 8.688890e-03 8.264257e-03 1.152653e-02 4.471347e-03 4.241273e-03 2.017782e-02 3.216194e-02 2.868232e-02 
    50.5                3.073145e-02 0.000000e+00 4.542457e-03 4.495558e-03 8.858849e-03 8.591514e-03 1.309290e-02 4.579573e-03 4.459133e-03 2.080972e-02 3.600904e-02 3.272340e-02 
    51.5                4.031948e-02 0.000000e+00 5.259112e-03 5.378307e-03 1.031817e-02 1.036506e-02 1.692754e-02 5.307143e-03 5.329851e-03 2.453222e-02 4.618744e-02 4.245849e-02 
    52.5                3.683837e-02 0.000000e+00 4.603220e-03 4.871584e-03 8.645760e-03 9.079320e-03 1.537897e-02 4.646354e-03 4.826561e-03 2.136997e-02 4.159059e-02 3.871961e-02 
    53.5                3.796233e-02 0.000000e+00 4.665827e-03 4.637794e-03 8.690162e-03 8.413702e-03 1.596815e-02 4.711352e-03 4.592473e-03 2.077162e-02 4.235836e-02 3.975625e-02 
    54.5                3.252448e-02 0.000000e+00 4.054030e-03 4.091919e-03 7.166760e-03 7.246702e-03 1.367872e-02 4.093021e-03 4.053076e-03 1.782539e-02 3.620330e-02 3.414326e-02 
    55.5                3.494211e-02 0.000000e+00 4.127364e-03 4.182109e-03 7.297409e-03 7.300628e-03 1.461667e-02 4.169050e-03 4.140176e-03 1.809781e-02 3.843947e-02 3.649908e-02 
    56.5                3.532858e-02 0.000000e+00 4.184593e-03 4.189784e-03 7.208958e-03 7.140250e-03 1.477523e-02 4.226823e-03 4.147470e-03 1.791214e-02 3.871260e-02 3.684013e-02 
    57.5                3.044218e-02 0.000000e+00 3.542993e-03 3.755449e-03 5.906642e-03 6.263906e-03 1.260273e-02 3.578364e-03 3.717969e-03 1.533766e-02 3.322612e-02 3.174906e-02 
    58.5                2.883555e-02 0.000000e+00 3.440270e-03 3.371931e-03 5.751567e-03 5.464413e-03 1.208275e-02 3.475642e-03 3.338297e-03 1.418743e-02 3.132909e-02 3.003215e-02 
    59.5                2.852627e-02 0.000000e+00 3.134340e-03 3.205464e-03 5.153339e-03 5.244189e-03 1.185239e-02 3.168204e-03 3.171062e-03 1.318712e-02 3.069595e-02 2.959729e-02 
    60.5                2.687188e-02 0.000000e+00 2.893885e-03 2.964790e-03 4.785934e-03 4.851006e-03 1.113104e-02 2.925916e-03 2.932515e-03 1.217890e-02 2.884174e-02 2.782302e-02 
    61.5                2.258577e-02 0.000000e+00 2.407737e-03 2.454287e-03 3.914566e-03 3.912608e-03 9.346711e-03 2.434590e-03 2.427091e-03 9.972791e-03 2.412661e-02 2.335618e-02 
    62.5                2.091854e-02 0.000000e+00 2.124912e-03 2.153688e-03 3.333747e-03 3.383484e-03 8.662408e-03 2.150054e-03 2.128770e-03 8.629976e-03 2.216506e-02 2.156644e-02 
    63.5                1.656516e-02 0.000000e+00 1.663791e-03 1.715430e-03 2.620100e-03 2.701949e-03 6.825671e-03 1.683298e-03 1.695295e-03 6.830889e-03 1.753380e-02 1.706303e-02 
    64.5                1.331328e-02 0.000000e+00 1.298430e-03 1.327478e-03 1.994265e-03 2.062731e-03 5.488642e-03 1.314344e-03 1.311533e-03 5.249656e-03 1.400951e-02 1.368629e-02 
    65.5                9.910507e-03 0.000000e+00 9.453506e-04 9.268558e-04 1.478659e-03 1.408082e-03 4.099221e-03 9.573680e-04 9.151567e-04 3.739319e-03 1.038479e-02 1.016425e-02 
    66.5                8.549806e-03 0.000000e+00 6.971581e-04 7.436840e-04 1.090806e-03 1.186337e-03 3.499887e-03 7.071281e-04 7.331936e-04 2.913395e-03 8.894971e-03 8.724587e-03 
    67.5                5.088855e-03 0.000000e+00 4.030616e-04 4.106116e-04 6.456313e-04 6.713904e-04 2.096481e-03 4.091539e-04 4.045259e-04 1.673283e-03 5.275739e-03 5.181609e-03 
    68.5                3.392801e-03 0.000000e+00 2.327218e-04 2.365112e-04 3.853320e-04 3.877996e-04 1.396744e-03 2.368025e-04 2.324728e-04 9.741742e-04 3.489705e-03 3.439177e-03 
    69.5                1.698753e-03 0.000000e+00 9.377075e-05 9.930444e-05 1.608223e-04 1.733033e-04 6.976939e-04 9.576712e-05 9.723557e-05 4.134316e-04 1.734422e-03 1.714542e-03 
    70.5                5.020701e-04 0.000000e+00 2.339004e-05 2.407444e-05 3.924493e-05 4.122521e-05 2.068136e-04 2.399186e-05 2.347477e-05 1.000795e-04 5.091890e-04 5.051008e-04 
    71.5                3.746566e-05 0.000000e+00 1.182131e-06 1.235232e-06 1.218084e-06 1.446892e-06 1.544280e-05 1.225589e-06 1.189031e-06 3.971650e-06 3.759412e-05 3.757228e-05 
    72.5                0.000000e+00 0.000000e+00 0.000000e+00 0.000000e+00 0.000000e+00 0.000000e+00 0.000000e+00 0.000000e+00 0.000000e+00 0.000000e+00 0.000000e+00 0.000000e+00 
    73.5                0.000000e+00 0.000000e+00 0.000000e+00 0.000000e+00 0.000000e+00 0.000000e+00 0.000000e+00 0.000000e+00 0.000000e+00 0.000000e+00 0.000000e+00 0.000000e+00 
    74.5                0.000000e+00 0.000000e+00 0.000000e+00 0.000000e+00 0.000000e+00 0.000000e+00 0.000000e+00 0.000000e+00 0.000000e+00 0.000000e+00 0.000000e+00 0.000000e+00 
    75.5                0.000000e+00 0.000000e+00 0.000000e+00 0.000000e+00 0.000000e+00 0.000000e+00 0.000000e+00 0.000000e+00 0.000000e+00 0.000000e+00 0.000000e+00 0.000000e+00 
    76.5                0.000000e+00 0.000000e+00 0.000000e+00 0.000000e+00 0.000000e+00 0.000000e+00 0.000000e+00 0.000000e+00 0.000000e+00 0.000000e+00 0.000000e+00 0.000000e+00 
    77.5                0.000000e+00 0.000000e+00 0.000000e+00 0.000000e+00 0.000000e+00 0.000000e+00 0.000000e+00 0.000000e+00 0.000000e+00 0.000000e+00 0.000000e+00 0.000000e+00 
    78.5                0.000000e+00 0.000000e+00 0.000000e+00 0.000000e+00 0.000000e+00 0.000000e+00 0.000000e+00 0.000000e+00 0.000000e+00 0.000000e+00 0.000000e+00 0.000000e+00 
    79.5                0.000000e+00 0.000000e+00 0.000000e+00 0.000000e+00 0.000000e+00 0.000000e+00 0.000000e+00 0.000000e+00 0.000000e+00 0.000000e+00 0.000000e+00 0.000000e+00 


