# 80 rows of flux data
# 12 columns of flux data
# 
# total cross-sectional flux  2.080516e+00 /m^2/yr
#
#                             +x ram      -x wake      +y port -y starboard    +z zenith     -z nadir        Earth          Sun     anti-Sun      rot (x)      rot (y)      rot (z) 
# average speed (km/s)         43.62        11.47        29.32        29.33        31.87        31.83        36.40        29.32        29.33        31.00        36.84        38.09 
# total flux (#/m2/yr)  1.112189e+00 3.832801e-02 3.483739e-01 3.483622e-01 6.290777e-01 6.278757e-01 4.986946e-01 3.483772e-01 3.483654e-01 1.550930e+00 1.847888e+00 1.498776e+00 
# velocity (km/s)
     0.5                0.000000e+00 0.000000e+00 0.000000e+00 0.000000e+00 0.000000e+00 0.000000e+00 0.000000e+00 0.000000e+00 0.000000e+00 0.000000e+00 0.000000e+00 0.000000e+00 
     1.5                4.959234e-05 4.486060e-05 4.195126e-05 4.350632e-05 3.458747e-05 2.740552e-05 4.237920e-05 4.194869e-05 4.350260e-05 1.150140e-04 1.212815e-04 1.385956e-04 
     2.5                3.434894e-04 2.291891e-04 2.699018e-04 2.680556e-04 2.176135e-04 2.183718e-04 2.860792e-04 2.698698e-04 2.680408e-04 7.637295e-04 7.839481e-04 8.614546e-04 
     3.5                9.521857e-04 6.129225e-04 8.295779e-04 8.321930e-04 7.000208e-04 7.137535e-04 8.672998e-04 8.296661e-04 8.321355e-04 2.400444e-03 2.308770e-03 2.501863e-03 
     4.5                1.610957e-03 1.137867e-03 1.636519e-03 1.645572e-03 1.454017e-03 1.457532e-03 1.660730e-03 1.636720e-03 1.645406e-03 4.851447e-03 4.406960e-03 4.708273e-03 
     5.5                2.322245e-03 1.666222e-03 2.667982e-03 2.644347e-03 2.486660e-03 2.471895e-03 2.636331e-03 2.668114e-03 2.644294e-03 8.037218e-03 6.965688e-03 7.306208e-03 
     6.5                3.018707e-03 2.328407e-03 3.675655e-03 3.688748e-03 3.569868e-03 3.593113e-03 3.580352e-03 3.675818e-03 3.688501e-03 1.136067e-02 9.802142e-03 1.000486e-02 
     7.5                3.516599e-03 2.820493e-03 4.730607e-03 4.721324e-03 4.922749e-03 4.961098e-03 4.538575e-03 4.730744e-03 4.721309e-03 1.512264e-02 1.276154e-02 1.247634e-02 
     8.5                4.074783e-03 3.337592e-03 5.656247e-03 5.648948e-03 6.101628e-03 6.107634e-03 5.406633e-03 5.656031e-03 5.649053e-03 1.840222e-02 1.552057e-02 1.482230e-02 
     9.5                4.765634e-03 3.503833e-03 6.610957e-03 6.626181e-03 7.527065e-03 7.519549e-03 6.273383e-03 6.610982e-03 6.626151e-03 2.216341e-02 1.849902e-02 1.702643e-02 
    10.5                5.411209e-03 3.439657e-03 7.524141e-03 7.502130e-03 8.879286e-03 8.961369e-03 7.101258e-03 7.524044e-03 7.502264e-03 2.576097e-02 2.124377e-02 1.890807e-02 
    11.5                6.235864e-03 3.175774e-03 8.319265e-03 8.300675e-03 1.029884e-02 1.029944e-02 7.980589e-03 8.319150e-03 8.300793e-03 2.921726e-02 2.399961e-02 2.069421e-02 
    12.5                6.750480e-03 2.940131e-03 8.980448e-03 8.953032e-03 1.138901e-02 1.149985e-02 8.518401e-03 8.980366e-03 8.953074e-03 3.202227e-02 2.612365e-02 2.195613e-02 
    13.5                7.085709e-03 2.694133e-03 9.313205e-03 9.320388e-03 1.233099e-02 1.251052e-02 8.823628e-03 9.313217e-03 9.320335e-03 3.418548e-02 2.794217e-02 2.268629e-02 
    14.5                7.923720e-03 2.239481e-03 9.701574e-03 9.658418e-03 1.325337e-02 1.320939e-02 9.292171e-03 9.701643e-03 9.658398e-03 3.602508e-02 2.955675e-02 2.362926e-02 
    15.5                8.319574e-03 1.952173e-03 9.875795e-03 9.852345e-03 1.389439e-02 1.403920e-02 9.488400e-03 9.875869e-03 9.852223e-03 3.755429e-02 3.098052e-02 2.410250e-02 
    16.5                9.109111e-03 1.655185e-03 1.021895e-02 1.025088e-02 1.483979e-02 1.489594e-02 9.776665e-03 1.021858e-02 1.025134e-02 3.951525e-02 3.278526e-02 2.505593e-02 
    17.5                9.724711e-03 1.319611e-03 1.015781e-02 1.016249e-02 1.521749e-02 1.529861e-02 9.882193e-03 1.015793e-02 1.016233e-02 4.010751e-02 3.358388e-02 2.515485e-02 
    18.5                1.019020e-02 1.024736e-03 1.018696e-02 1.015530e-02 1.578047e-02 1.564166e-02 9.923090e-03 1.018742e-02 1.015513e-02 4.088218e-02 3.445855e-02 2.532192e-02 
    19.5                1.101600e-02 7.577200e-04 1.006188e-02 1.011481e-02 1.613422e-02 1.598421e-02 9.850396e-03 1.006179e-02 1.011503e-02 4.137108e-02 3.532300e-02 2.561481e-02 
    20.5                1.148586e-02 5.423857e-04 9.792025e-03 9.812679e-03 1.608997e-02 1.623082e-02 9.621056e-03 9.791937e-03 9.812725e-03 4.106510e-02 3.553647e-02 2.524953e-02 
    21.5                1.222651e-02 3.711908e-04 9.806870e-03 9.715018e-03 1.631188e-02 1.630977e-02 9.762241e-03 9.807294e-03 9.714941e-03 4.130186e-02 3.605061e-02 2.561413e-02 
    22.5                1.315176e-02 2.248183e-04 9.621121e-03 9.710777e-03 1.681754e-02 1.688944e-02 9.639007e-03 9.620955e-03 9.710963e-03 4.207402e-02 3.730384e-02 2.590956e-02 
    23.5                1.337132e-02 1.255809e-04 9.071525e-03 9.037289e-03 1.647580e-02 1.614984e-02 9.236738e-03 9.071769e-03 9.037256e-03 4.033321e-02 3.629127e-02 2.499911e-02 
    24.5                1.364392e-02 8.141131e-05 8.809429e-03 8.804763e-03 1.591143e-02 1.600314e-02 9.013222e-03 8.809384e-03 8.804719e-03 3.931677e-02 3.566986e-02 2.455849e-02 
    25.5                1.442109e-02 5.237160e-05 8.392963e-03 8.521638e-03 1.610765e-02 1.593658e-02 8.737108e-03 8.393383e-03 8.521594e-03 3.901247e-02 3.604419e-02 2.448033e-02 
    26.5                1.531663e-02 2.994200e-05 8.278409e-03 8.233877e-03 1.602906e-02 1.599771e-02 8.864578e-03 8.278209e-03 8.234002e-03 3.869130e-02 3.639936e-02 2.475140e-02 
    27.5                1.510963e-02 1.513945e-05 7.704540e-03 7.705540e-03 1.536579e-02 1.509160e-02 8.383923e-03 7.704977e-03 7.705476e-03 3.658227e-02 3.477219e-02 2.362235e-02 
    28.5                1.539646e-02 4.850868e-06 7.343033e-03 7.328122e-03 1.466573e-02 1.498455e-02 8.132407e-03 7.343276e-03 7.327759e-03 3.538439e-02 3.416763e-02 2.320617e-02 
    29.5                1.609192e-02 3.288336e-07 6.944738e-03 6.963052e-03 1.457667e-02 1.475446e-02 7.750750e-03 6.944758e-03 6.963272e-03 3.454407e-02 3.417346e-02 2.311471e-02 
    30.5                1.633434e-02 0.000000e+00 6.532120e-03 6.515108e-03 1.432765e-02 1.417476e-02 7.677712e-03 6.532377e-03 6.515045e-03 3.331460e-02 3.357463e-02 2.270802e-02 
    31.5                1.634117e-02 0.000000e+00 6.248716e-03 6.206132e-03 1.356975e-02 1.377147e-02 7.492242e-03 6.248692e-03 6.206360e-03 3.185099e-02 3.245004e-02 2.217740e-02 
    32.5                1.691236e-02 0.000000e+00 5.729280e-03 5.803640e-03 1.323884e-02 1.287078e-02 7.537100e-03 5.728852e-03 5.804245e-03 3.021925e-02 3.186748e-02 2.208996e-02 
    33.5                1.640114e-02 0.000000e+00 5.552143e-03 5.485014e-03 1.247940e-02 1.246624e-02 6.923797e-03 5.552330e-03 5.484758e-03 2.877975e-02 3.041264e-02 2.114669e-02 
    34.5                1.679216e-02 0.000000e+00 5.163340e-03 5.223308e-03 1.228843e-02 1.226319e-02 6.885266e-03 5.163654e-03 5.223461e-03 2.809656e-02 3.030174e-02 2.109255e-02 
    35.5                1.597749e-02 0.000000e+00 4.851029e-03 4.902533e-03 1.131751e-02 1.126110e-02 6.412007e-03 4.850712e-03 4.902764e-03 2.593059e-02 2.812379e-02 1.990405e-02 
    36.5                1.789572e-02 0.000000e+00 4.928767e-03 4.786533e-03 1.188771e-02 1.172219e-02 6.895545e-03 4.930323e-03 4.785771e-03 2.672939e-02 3.013294e-02 2.148455e-02 
    37.5                1.713913e-02 0.000000e+00 4.506796e-03 4.593964e-03 1.116821e-02 1.097221e-02 6.535912e-03 4.506878e-03 4.593721e-03 2.507927e-02 2.843760e-02 2.044971e-02 
    38.5                1.853613e-02 0.000000e+00 4.541751e-03 4.529195e-03 1.092535e-02 1.078268e-02 6.795861e-03 4.540964e-03 4.530115e-03 2.459040e-02 2.910898e-02 2.163150e-02 
    39.5                1.792110e-02 0.000000e+00 4.264558e-03 4.224550e-03 1.050956e-02 1.040206e-02 6.806742e-03 4.264880e-03 4.224596e-03 2.360740e-02 2.800392e-02 2.074824e-02 
    40.5                1.763602e-02 0.000000e+00 4.059226e-03 4.082219e-03 1.003114e-02 9.779343e-03 6.500194e-03 4.059429e-03 4.082011e-03 2.235682e-02 2.696503e-02 2.024041e-02 
    41.5                1.914236e-02 0.000000e+00 4.025461e-03 4.040648e-03 9.895887e-03 9.999555e-03 6.569701e-03 4.026997e-03 4.039381e-03 2.235424e-02 2.815109e-02 2.156783e-02 
    42.5                1.968881e-02 0.000000e+00 3.947256e-03 3.924410e-03 9.655475e-03 9.676413e-03 6.854849e-03 3.947079e-03 3.924577e-03 2.180754e-02 2.809023e-02 2.196521e-02 
    43.5                1.935784e-02 0.000000e+00 3.612040e-03 3.600459e-03 9.036058e-03 8.989452e-03 6.925293e-03 3.612312e-03 3.600550e-03 2.023972e-02 2.695811e-02 2.136378e-02 
    44.5                2.332659e-02 0.000000e+00 3.964350e-03 4.032920e-03 9.852385e-03 9.981307e-03 7.826624e-03 3.964708e-03 4.032332e-03 2.233940e-02 3.122755e-02 2.541535e-02 
    45.5                2.196057e-02 0.000000e+00 3.797182e-03 3.760248e-03 9.085934e-03 9.283923e-03 7.548653e-03 3.796988e-03 3.760595e-03 2.072889e-02 2.909660e-02 2.389965e-02 
    46.5                2.234701e-02 0.000000e+00 3.770937e-03 3.690988e-03 8.964296e-03 9.071624e-03 7.658306e-03 3.771176e-03 3.690856e-03 2.034416e-02 2.916520e-02 2.419120e-02 
    47.5                2.532500e-02 0.000000e+00 3.779921e-03 3.894265e-03 9.531792e-03 9.146398e-03 8.750668e-03 3.778911e-03 3.895065e-03 2.109065e-02 3.202975e-02 2.711906e-02 
    48.5                2.544547e-02 0.000000e+00 3.698627e-03 3.690987e-03 8.718952e-03 8.996233e-03 8.455795e-03 3.697567e-03 3.692045e-03 2.010791e-02 3.159674e-02 2.712274e-02 
    49.5                2.788172e-02 0.000000e+00 3.970892e-03 3.890552e-03 9.326600e-03 9.139962e-03 9.343698e-03 3.970449e-03 3.891126e-03 2.101745e-02 3.402167e-02 2.957091e-02 
    50.5                3.014120e-02 0.000000e+00 3.953348e-03 3.972009e-03 9.282944e-03 9.031702e-03 9.756931e-03 3.953815e-03 3.971899e-03 2.091697e-02 3.593328e-02 3.175795e-02 
    51.5                3.297644e-02 0.000000e+00 4.217573e-03 4.155678e-03 9.017569e-03 9.341769e-03 1.058693e-02 4.220302e-03 4.151878e-03 2.115969e-02 3.842298e-02 3.461640e-02 
    52.5                3.316042e-02 0.000000e+00 3.993534e-03 4.099503e-03 8.651159e-03 8.493077e-03 1.011516e-02 3.994237e-03 4.099348e-03 1.995262e-02 3.802450e-02 3.468815e-02 
    53.5                3.473900e-02 0.000000e+00 4.078845e-03 4.053987e-03 8.393755e-03 8.386210e-03 1.094735e-02 4.077627e-03 4.054783e-03 1.969810e-02 3.933083e-02 3.622779e-02 
    54.5                3.615285e-02 0.000000e+00 4.057066e-03 4.059277e-03 8.065167e-03 8.071231e-03 1.122359e-02 4.055001e-03 4.062077e-03 1.917352e-02 4.038269e-02 3.759850e-02 
    55.5                3.515958e-02 0.000000e+00 3.793082e-03 3.787378e-03 7.477759e-03 7.394146e-03 1.105010e-02 3.792591e-03 3.787544e-03 1.778103e-02 3.887657e-02 3.646904e-02 
    56.5                3.478140e-02 0.000000e+00 3.767748e-03 3.739363e-03 7.086882e-03 6.920951e-03 1.088892e-02 3.769101e-03 3.738217e-03 1.697567e-02 3.818018e-02 3.605226e-02 
    57.5                3.386997e-02 0.000000e+00 3.554365e-03 3.607622e-03 6.585753e-03 6.689240e-03 1.031470e-02 3.553703e-03 3.608102e-03 1.619932e-02 3.703108e-02 3.504028e-02 
    58.5                2.985121e-02 0.000000e+00 3.272706e-03 3.238248e-03 5.651141e-03 5.578693e-03 9.322859e-03 3.273409e-03 3.237848e-03 1.400562e-02 3.241903e-02 3.090502e-02 
    59.5                2.934863e-02 0.000000e+00 3.061972e-03 3.088643e-03 5.407504e-03 5.146124e-03 8.814569e-03 3.061334e-03 3.089938e-03 1.317663e-02 3.164088e-02 3.030901e-02 
    60.5                2.619948e-02 0.000000e+00 2.720673e-03 2.704846e-03 4.486050e-03 4.563058e-03 8.124544e-03 2.721253e-03 2.704151e-03 1.139816e-02 2.810475e-02 2.703083e-02 
    61.5                2.484039e-02 0.000000e+00 2.432912e-03 2.450876e-03 3.905285e-03 3.925886e-03 7.259440e-03 2.432607e-03 2.451460e-03 1.000072e-02 2.637015e-02 2.556258e-02 
    62.5                2.256363e-02 0.000000e+00 2.076082e-03 2.066690e-03 3.230898e-03 3.256386e-03 6.971619e-03 2.074717e-03 2.068210e-03 8.393059e-03 2.376305e-02 2.315982e-02 
    63.5                1.863959e-02 0.000000e+00 1.756118e-03 1.768106e-03 2.606385e-03 2.526246e-03 5.368386e-03 1.756631e-03 1.767744e-03 6.794551e-03 1.955412e-02 1.913128e-02 
    64.5                1.523498e-02 0.000000e+00 1.411012e-03 1.408162e-03 1.958504e-03 2.003279e-03 4.655580e-03 1.411165e-03 1.408161e-03 5.330284e-03 1.590243e-02 1.561703e-02 
    65.5                1.251161e-02 0.000000e+00 1.067313e-03 1.062790e-03 1.505939e-03 1.496538e-03 3.727119e-03 1.066933e-03 1.063322e-03 4.048453e-03 1.297934e-02 1.278696e-02 
    66.5                9.618808e-03 0.000000e+00 8.013997e-04 8.086697e-04 1.015332e-03 1.079519e-03 2.941951e-03 8.010813e-04 8.088574e-04 2.917431e-03 9.921456e-03 9.815084e-03 
    67.5                7.112599e-03 0.000000e+00 5.521860e-04 5.509259e-04 7.289420e-04 7.074687e-04 2.085632e-03 5.521486e-04 5.511261e-04 1.999227e-03 7.302802e-03 7.236622e-03 
    68.5                5.058430e-03 0.000000e+00 3.524757e-04 3.531430e-04 4.867504e-04 4.368812e-04 1.473356e-03 3.529362e-04 3.530395e-04 1.289620e-03 5.166597e-03 5.130106e-03 
    69.5                3.172142e-03 0.000000e+00 1.928158e-04 1.938238e-04 2.329177e-04 2.270655e-04 9.878684e-04 1.927839e-04 1.939286e-04 6.686154e-04 3.216939e-03 3.205717e-03 
    70.5                1.645231e-03 0.000000e+00 7.946699e-05 7.992678e-05 9.245365e-05 8.079246e-05 4.963726e-04 7.968011e-05 7.976070e-05 2.631125e-04 1.658200e-03 1.656189e-03 
    71.5                4.131795e-04 0.000000e+00 1.272149e-05 1.276627e-05 1.406321e-05 1.005168e-05 1.160698e-04 1.300086e-05 1.257705e-05 3.914101e-05 4.142645e-04 4.143633e-04 
    72.5                2.511957e-07 0.000000e+00 2.478794e-09 3.848324e-09 5.233202e-09 1.697874e-09 0.000000e+00 2.310229e-09 4.283587e-09 1.060182e-08 2.513117e-07 2.513087e-07 
    73.5                0.000000e+00 0.000000e+00 0.000000e+00 0.000000e+00 0.000000e+00 0.000000e+00 0.000000e+00 0.000000e+00 0.000000e+00 0.000000e+00 0.000000e+00 0.000000e+00 
    74.5                0.000000e+00 0.000000e+00 0.000000e+00 0.000000e+00 0.000000e+00 0.000000e+00 0.000000e+00 0.000000e+00 0.000000e+00 0.000000e+00 0.000000e+00 0.000000e+00 
    75.5                0.000000e+00 0.000000e+00 0.000000e+00 0.000000e+00 0.000000e+00 0.000000e+00 0.000000e+00 0.000000e+00 0.000000e+00 0.000000e+00 0.000000e+00 0.000000e+00 
    76.5                0.000000e+00 0.000000e+00 0.000000e+00 0.000000e+00 0.000000e+00 0.000000e+00 0.000000e+00 0.000000e+00 0.000000e+00 0.000000e+00 0.000000e+00 0.000000e+00 
    77.5                0.000000e+00 0.000000e+00 0.000000e+00 0.000000e+00 0.000000e+00 0.000000e+00 0.000000e+00 0.000000e+00 0.000000e+00 0.000000e+00 0.000000e+00 0.000000e+00 
    78.5                0.000000e+00 0.000000e+00 0.000000e+00 0.000000e+00 0.000000e+00 0.000000e+00 0.000000e+00 0.000000e+00 0.000000e+00 0.000000e+00 0.000000e+00 0.000000e+00 
    79.5                0.000000e+00 0.000000e+00 0.000000e+00 0.000000e+00 0.000000e+00 0.000000e+00 0.000000e+00 0.000000e+00 0.000000e+00 0.000000e+00 0.000000e+00 0.000000e+00 


