# 80 rows of flux data
# 12 columns of flux data
# 
# total cross-sectional flux  2.086945e+00 /m^2/yr
#
#                             +x ram      -x wake      +y port -y starboard    +z zenith     -z nadir        Earth          Sun     anti-Sun      rot (x)      rot (y)      rot (z) 
# average speed (km/s)         43.63        11.47        29.40        29.41        31.89        31.84        36.52        29.40        29.41        31.04        36.88        38.12 
# total flux (#/m2/yr)  1.117286e+00 3.812761e-02 3.503063e-01 3.503140e-01 6.296578e-01 6.285037e-01 4.997913e-01 3.503098e-01 3.503182e-01 1.554642e+00 1.852906e+00 1.505088e+00 
# velocity (km/s)
     0.5                0.000000e+00 2.834894e-07 0.000000e+00 4.865661e-07 1.485835e-07 0.000000e+00 0.000000e+00 0.000000e+00 4.872514e-07 5.102963e-07 3.284420e-07 5.974811e-07 
     1.5                4.882588e-05 4.915572e-05 4.223394e-05 4.281718e-05 2.781653e-05 3.320747e-05 4.259409e-05 4.222957e-05 4.281464e-05 1.149648e-04 1.244443e-04 1.409689e-04 
     2.5                3.602410e-04 2.290585e-04 2.726797e-04 2.790485e-04 2.306045e-04 2.241111e-04 2.972467e-04 2.727032e-04 2.790282e-04 7.886411e-04 8.126277e-04 8.861534e-04 
     3.5                9.374322e-04 6.061484e-04 8.137022e-04 8.083940e-04 6.662381e-04 7.063881e-04 8.375673e-04 8.135939e-04 8.084433e-04 2.345647e-03 2.259284e-03 2.455715e-03 
     4.5                1.586572e-03 1.117175e-03 1.626850e-03 1.630544e-03 1.459572e-03 1.425364e-03 1.615660e-03 1.626668e-03 1.630758e-03 4.806082e-03 4.358906e-03 4.653523e-03 
     5.5                2.286337e-03 1.649471e-03 2.609999e-03 2.635348e-03 2.427153e-03 2.439695e-03 2.560431e-03 2.609869e-03 2.635435e-03 7.917804e-03 6.853964e-03 7.209302e-03 
     6.5                3.027794e-03 2.325180e-03 3.691249e-03 3.660414e-03 3.628754e-03 3.589637e-03 3.605333e-03 3.691148e-03 3.660621e-03 1.139829e-02 9.845293e-03 1.000237e-02 
     7.5                3.483909e-03 2.808237e-03 4.709625e-03 4.706682e-03 4.879045e-03 4.947025e-03 4.502057e-03 4.709481e-03 4.706887e-03 1.504697e-02 1.268357e-02 1.240335e-02 
     8.5                4.106856e-03 3.302800e-03 5.627481e-03 5.616381e-03 6.061883e-03 6.139699e-03 5.398668e-03 5.627593e-03 5.616264e-03 1.835788e-02 1.551444e-02 1.477895e-02 
     9.5                4.739375e-03 3.472155e-03 6.557114e-03 6.567700e-03 7.439226e-03 7.383219e-03 6.258836e-03 6.557208e-03 6.567620e-03 2.190805e-02 1.826041e-02 1.689955e-02 
    10.5                5.310588e-03 3.429687e-03 7.485809e-03 7.463016e-03 8.855741e-03 8.903758e-03 7.040536e-03 7.485885e-03 7.462893e-03 2.564358e-02 2.111281e-02 1.875779e-02 
    11.5                6.243126e-03 3.169369e-03 8.298058e-03 8.275780e-03 1.012823e-02 1.021432e-02 7.939190e-03 8.298181e-03 8.275671e-03 2.896046e-02 2.376867e-02 2.065198e-02 
    12.5                6.663948e-03 2.912351e-03 8.915034e-03 8.896183e-03 1.136196e-02 1.133569e-02 8.454990e-03 8.915255e-03 8.896139e-03 3.179602e-02 2.589024e-02 2.178115e-02 
    13.5                7.186186e-03 2.673189e-03 9.310853e-03 9.316664e-03 1.238874e-02 1.247272e-02 8.837766e-03 9.310755e-03 9.316766e-03 3.421139e-02 2.800514e-02 2.273318e-02 
    14.5                7.838732e-03 2.238313e-03 9.694135e-03 9.636068e-03 1.311620e-02 1.321055e-02 9.246494e-03 9.694125e-03 9.636065e-03 3.588726e-02 2.939014e-02 2.353923e-02 
    15.5                8.296851e-03 1.945289e-03 9.846121e-03 9.856599e-03 1.385502e-02 1.393014e-02 9.445259e-03 9.846222e-03 9.856669e-03 3.739633e-02 3.083404e-02 2.404106e-02 
    16.5                9.169595e-03 1.661584e-03 1.021444e-02 1.023033e-02 1.482780e-02 1.496181e-02 9.767436e-03 1.021481e-02 1.022999e-02 3.957214e-02 3.285428e-02 2.508568e-02 
    17.5                9.492110e-03 1.315868e-03 1.013509e-02 1.014784e-02 1.499767e-02 1.496747e-02 9.757604e-03 1.013494e-02 1.014809e-02 3.959477e-02 3.299319e-02 2.495018e-02 
    18.5                1.026600e-02 1.019279e-03 1.021405e-02 1.017369e-02 1.574500e-02 1.579604e-02 9.854681e-03 1.021389e-02 1.017371e-02 4.101784e-02 3.457818e-02 2.540124e-02 
    19.5                1.093731e-02 7.560126e-04 1.006885e-02 1.013595e-02 1.603383e-02 1.575676e-02 9.837490e-03 1.006910e-02 1.013607e-02 4.108127e-02 3.500082e-02 2.555459e-02 
    20.5                1.157261e-02 5.411649e-04 9.831824e-03 9.862251e-03 1.622012e-02 1.624888e-02 9.640613e-03 9.831862e-03 9.862338e-03 4.126009e-02 3.570412e-02 2.538596e-02 
    21.5                1.225747e-02 3.741067e-04 9.854440e-03 9.759836e-03 1.627354e-02 1.640615e-02 9.693755e-03 9.854278e-03 9.759940e-03 4.141131e-02 3.612443e-02 2.568747e-02 
    22.5                1.301498e-02 2.219641e-04 9.602562e-03 9.688380e-03 1.665399e-02 1.666266e-02 9.566300e-03 9.602701e-03 9.688565e-03 4.170912e-02 3.689742e-02 2.576054e-02 
    23.5                1.368224e-02 1.270150e-04 9.175838e-03 9.165293e-03 1.673171e-02 1.642250e-02 9.356242e-03 9.175781e-03 9.165407e-03 4.095282e-02 3.690787e-02 2.542646e-02 
    24.5                1.369326e-02 8.058460e-05 8.877158e-03 8.822329e-03 1.575237e-02 1.610901e-02 8.994531e-03 8.877361e-03 8.822320e-03 3.932054e-02 3.564874e-02 2.466817e-02 
    25.5                1.444106e-02 5.236137e-05 8.447697e-03 8.558272e-03 1.612154e-02 1.591529e-02 8.761763e-03 8.447558e-03 8.558499e-03 3.906047e-02 3.604786e-02 2.456096e-02 
    26.5                1.530883e-02 2.948426e-05 8.287665e-03 8.252162e-03 1.612654e-02 1.587715e-02 8.803931e-03 8.287906e-03 8.252267e-03 3.869360e-02 3.636655e-02 2.475240e-02 
    27.5                1.534824e-02 1.531205e-05 7.811201e-03 7.822999e-03 1.538470e-02 1.546652e-02 8.404606e-03 7.811102e-03 7.822949e-03 3.708353e-02 3.525362e-02 2.398638e-02 
    28.5                1.559029e-02 4.680741e-06 7.435607e-03 7.359357e-03 1.479834e-02 1.500396e-02 8.143784e-03 7.435285e-03 7.359815e-03 3.559004e-02 3.439810e-02 2.343370e-02 
    29.5                1.597982e-02 3.299883e-07 6.983510e-03 7.045320e-03 1.460060e-02 1.455315e-02 7.688752e-03 6.983368e-03 7.045839e-03 3.443338e-02 3.396929e-02 2.308291e-02 
    30.5                1.691530e-02 0.000000e+00 6.632589e-03 6.676015e-03 1.474408e-02 1.471611e-02 7.865451e-03 6.632899e-03 6.675745e-03 3.436310e-02 3.470155e-02 2.338599e-02 
    31.5                1.635072e-02 0.000000e+00 6.264399e-03 6.211629e-03 1.365376e-02 1.341332e-02 7.509015e-03 6.265071e-03 6.211128e-03 3.162569e-02 3.224017e-02 2.221994e-02 
    32.5                1.695022e-02 0.000000e+00 5.858765e-03 5.870292e-03 1.304880e-02 1.324423e-02 7.370497e-03 5.858902e-03 5.870458e-03 3.048752e-02 3.203579e-02 2.222078e-02 
    33.5                1.676123e-02 0.000000e+00 5.606616e-03 5.569900e-03 1.266026e-02 1.275416e-02 7.005236e-03 5.606419e-03 5.570115e-03 2.928499e-02 3.102841e-02 2.154015e-02 
    34.5                1.695723e-02 0.000000e+00 5.257581e-03 5.343683e-03 1.249023e-02 1.230176e-02 6.853299e-03 5.257704e-03 5.344029e-03 2.843013e-02 3.058837e-02 2.134945e-02 
    35.5                1.620371e-02 0.000000e+00 4.918798e-03 4.949857e-03 1.156823e-02 1.123508e-02 6.610494e-03 4.919240e-03 4.949320e-03 2.620602e-02 2.844405e-02 2.017440e-02 
    36.5                1.783568e-02 0.000000e+00 5.042498e-03 4.861060e-03 1.167720e-02 1.191774e-02 6.819856e-03 5.041297e-03 4.861784e-03 2.680882e-02 3.008010e-02 2.151809e-02 
    37.5                1.726385e-02 0.000000e+00 4.572799e-03 4.663745e-03 1.130231e-02 1.095810e-02 6.525064e-03 4.573196e-03 4.663899e-03 2.525584e-02 2.862323e-02 2.062291e-02 
    38.5                1.899697e-02 0.000000e+00 4.599300e-03 4.648298e-03 1.124450e-02 1.088534e-02 7.025069e-03 4.599620e-03 4.648383e-03 2.508335e-02 2.973977e-02 2.215702e-02 
    39.5                1.787252e-02 0.000000e+00 4.350660e-03 4.298590e-03 1.048119e-02 1.034324e-02 6.700242e-03 4.350642e-03 4.298724e-03 2.360212e-02 2.791229e-02 2.076595e-02 
    40.5                1.814464e-02 0.000000e+00 4.140119e-03 4.147163e-03 1.024187e-02 1.019532e-02 6.563158e-03 4.140101e-03 4.147502e-03 2.304155e-02 2.777685e-02 2.080361e-02 
    41.5                1.892859e-02 0.000000e+00 4.061110e-03 4.034718e-03 9.695017e-03 9.959621e-03 6.305081e-03 4.059845e-03 4.035685e-03 2.215177e-02 2.783102e-02 2.137457e-02 
    42.5                2.023528e-02 0.000000e+00 4.013390e-03 4.054676e-03 1.002448e-02 9.733954e-03 7.148788e-03 4.013718e-03 4.054581e-03 2.230639e-02 2.878827e-02 2.256836e-02 
    43.5                1.919294e-02 0.000000e+00 3.661668e-03 3.681517e-03 8.845641e-03 9.059855e-03 6.737600e-03 3.661161e-03 3.681885e-03 2.019080e-02 2.676625e-02 2.125139e-02 
    44.5                2.357097e-02 0.000000e+00 4.049148e-03 4.053363e-03 9.868701e-03 1.002850e-02 7.887031e-03 4.048622e-03 4.053863e-03 2.245753e-02 3.145338e-02 2.569496e-02 
    45.5                2.245915e-02 0.000000e+00 3.833325e-03 3.824843e-03 9.279703e-03 9.494609e-03 7.725043e-03 3.833487e-03 3.826041e-03 2.118588e-02 2.975410e-02 2.443633e-02 
    46.5                2.296780e-02 0.000000e+00 3.873048e-03 3.773161e-03 9.246730e-03 9.071743e-03 7.850250e-03 3.873770e-03 3.772611e-03 2.070081e-02 2.984417e-02 2.485640e-02 
    47.5                2.514012e-02 0.000000e+00 3.809342e-03 3.963486e-03 9.401665e-03 9.175951e-03 8.648092e-03 3.810198e-03 3.962788e-03 2.105069e-02 3.181519e-02 2.697219e-02 
    48.5                2.524861e-02 0.000000e+00 3.695792e-03 3.674805e-03 8.742431e-03 8.863297e-03 8.585223e-03 3.697370e-03 3.673709e-03 2.002137e-02 3.137527e-02 2.693537e-02 
    49.5                2.758857e-02 0.000000e+00 3.998599e-03 3.904639e-03 9.055450e-03 9.197961e-03 9.172385e-03 3.999154e-03 3.903811e-03 2.084136e-02 3.365276e-02 2.930066e-02 
    50.5                3.017243e-02 0.000000e+00 3.966608e-03 4.047519e-03 9.182211e-03 9.051205e-03 9.591744e-03 3.965229e-03 4.048694e-03 2.089824e-02 3.592594e-02 3.181539e-02 
    51.5                3.276830e-02 0.000000e+00 4.322826e-03 4.198362e-03 9.197694e-03 9.165210e-03 9.896680e-03 4.320803e-03 4.201296e-03 2.124425e-02 3.823634e-02 3.444723e-02 
    52.5                3.383767e-02 0.000000e+00 4.039512e-03 4.129552e-03 8.687962e-03 8.656136e-03 1.041140e-02 4.038884e-03 4.129159e-03 2.019954e-02 3.874565e-02 3.538484e-02 
    53.5                3.497430e-02 0.000000e+00 4.100907e-03 4.062168e-03 8.365085e-03 8.297799e-03 1.080896e-02 4.100832e-03 4.062497e-03 1.962284e-02 3.951085e-02 3.647590e-02 
    54.5                3.609550e-02 0.000000e+00 4.051654e-03 4.095233e-03 7.954111e-03 7.956459e-03 1.158395e-02 4.053252e-03 4.092983e-03 1.899230e-02 4.024339e-02 3.755431e-02 
    55.5                3.515909e-02 0.000000e+00 3.809084e-03 3.814746e-03 7.498050e-03 7.393007e-03 1.098638e-02 3.809504e-03 3.814760e-03 1.785026e-02 3.889690e-02 3.648515e-02 
    56.5                3.484840e-02 0.000000e+00 3.824868e-03 3.774489e-03 7.087040e-03 6.944298e-03 1.078873e-02 3.824033e-03 3.774918e-03 1.706436e-02 3.825761e-02 3.613841e-02 
    57.5                3.343849e-02 0.000000e+00 3.533199e-03 3.586039e-03 6.396845e-03 6.396663e-03 1.047749e-02 3.533655e-03 3.585955e-03 1.574876e-02 3.646125e-02 3.461004e-02 
    58.5                3.028872e-02 0.000000e+00 3.310371e-03 3.263812e-03 5.675976e-03 5.680599e-03 9.545885e-03 3.310924e-03 3.263398e-03 1.419475e-02 3.288968e-02 3.135629e-02 
    59.5                2.924733e-02 0.000000e+00 3.066910e-03 3.116431e-03 5.292655e-03 5.171958e-03 8.862538e-03 3.066555e-03 3.116644e-03 1.312988e-02 3.152646e-02 3.021581e-02 
    60.5                2.626938e-02 0.000000e+00 2.741010e-03 2.714703e-03 4.598167e-03 4.439617e-03 7.884713e-03 2.740180e-03 2.716147e-03 1.141797e-02 2.817360e-02 2.710658e-02 
    61.5                2.515712e-02 0.000000e+00 2.473659e-03 2.495759e-03 3.856974e-03 4.015273e-03 7.834533e-03 2.475065e-03 2.493753e-03 1.010206e-02 2.669740e-02 2.589251e-02 
    62.5                2.269470e-02 0.000000e+00 2.094174e-03 2.078457e-03 3.247167e-03 3.197393e-03 7.045524e-03 2.095697e-03 2.077826e-03 8.385524e-03 2.388207e-02 2.329575e-02 
    63.5                1.874261e-02 0.000000e+00 1.769546e-03 1.795477e-03 2.569881e-03 2.513803e-03 5.695103e-03 1.769480e-03 1.795720e-03 6.789879e-03 1.964444e-02 1.924175e-02 
    64.5                1.524389e-02 0.000000e+00 1.416895e-03 1.413013e-03 1.948491e-03 1.971279e-03 4.682470e-03 1.416944e-03 1.413051e-03 5.310097e-03 1.590295e-02 1.562842e-02 
    65.5                1.255847e-02 0.000000e+00 1.080154e-03 1.074454e-03 1.466627e-03 1.481794e-03 3.908303e-03 1.080642e-03 1.074255e-03 4.023010e-03 1.301399e-02 1.283829e-02 
    66.5                9.827917e-03 0.000000e+00 8.181745e-04 8.199853e-04 1.046274e-03 1.067767e-03 2.995863e-03 8.184968e-04 8.199494e-04 2.959299e-03 1.013210e-02 1.002748e-02 
    67.5                7.148949e-03 0.000000e+00 5.579885e-04 5.585063e-04 7.244027e-04 6.916024e-04 2.234524e-03 5.581781e-04 5.584336e-04 1.994132e-03 7.335288e-03 7.275245e-03 
    68.5                5.051709e-03 0.000000e+00 3.577074e-04 3.619744e-04 4.635093e-04 4.406784e-04 1.548724e-03 3.575421e-04 3.622136e-04 1.282667e-03 5.157078e-03 5.125191e-03 
    69.5                3.221412e-03 0.000000e+00 1.963092e-04 1.971115e-04 2.273598e-04 2.272999e-04 1.067657e-03 1.966204e-04 1.970043e-04 6.710043e-04 3.265172e-03 3.255824e-03 
    70.5                1.669937e-03 0.000000e+00 8.112156e-05 8.133760e-05 9.110005e-05 7.969954e-05 5.499642e-04 8.095636e-05 8.156678e-05 2.637624e-04 1.682499e-03 1.681173e-03 
    71.5                4.144848e-04 0.000000e+00 1.322687e-05 1.333047e-05 1.384827e-05 1.140001e-05 1.291068e-04 1.304248e-05 1.354244e-05 4.086374e-05 4.156201e-04 4.157147e-04 
    72.5                2.558556e-07 0.000000e+00 2.404059e-09 4.424911e-09 1.815278e-09 4.991339e-09 1.038123e-07 2.581343e-09 4.008154e-09 1.073531e-08 2.559667e-07 2.559761e-07 
    73.5                0.000000e+00 0.000000e+00 0.000000e+00 0.000000e+00 0.000000e+00 0.000000e+00 0.000000e+00 0.000000e+00 0.000000e+00 0.000000e+00 0.000000e+00 0.000000e+00 
    74.5                0.000000e+00 0.000000e+00 0.000000e+00 0.000000e+00 0.000000e+00 0.000000e+00 0.000000e+00 0.000000e+00 0.000000e+00 0.000000e+00 0.000000e+00 0.000000e+00 
    75.5                0.000000e+00 0.000000e+00 0.000000e+00 0.000000e+00 0.000000e+00 0.000000e+00 0.000000e+00 0.000000e+00 0.000000e+00 0.000000e+00 0.000000e+00 0.000000e+00 
    76.5                0.000000e+00 0.000000e+00 0.000000e+00 0.000000e+00 0.000000e+00 0.000000e+00 0.000000e+00 0.000000e+00 0.000000e+00 0.000000e+00 0.000000e+00 0.000000e+00 
    77.5                0.000000e+00 0.000000e+00 0.000000e+00 0.000000e+00 0.000000e+00 0.000000e+00 0.000000e+00 0.000000e+00 0.000000e+00 0.000000e+00 0.000000e+00 0.000000e+00 
    78.5                0.000000e+00 0.000000e+00 0.000000e+00 0.000000e+00 0.000000e+00 0.000000e+00 0.000000e+00 0.000000e+00 0.000000e+00 0.000000e+00 0.000000e+00 0.000000e+00 
    79.5                0.000000e+00 0.000000e+00 0.000000e+00 0.000000e+00 0.000000e+00 0.000000e+00 0.000000e+00 0.000000e+00 0.000000e+00 0.000000e+00 0.000000e+00 0.000000e+00 


