# 80 rows of flux data
# 12 columns of flux data
# 
# total cross-sectional flux  4.770760e+00 /m^2/yr
#
#                             +x ram      -x wake      +y port -y starboard    +z zenith     -z nadir        Earth          Sun     anti-Sun      rot (x)      rot (y)      rot (z) 
# average speed (km/s)         27.25        15.49        27.09        26.97        23.88        18.78        27.28        27.09        26.97        26.10        24.85        26.67 
# total flux (#/m2/yr)  1.342708e+00 1.058204e-01 1.809473e+00 1.809523e+00 2.076859e+00 6.883877e-03 1.813014e+00 1.809467e+00 1.809530e+00 4.434046e+00 2.760057e+00 4.047583e+00 
# velocity (km/s)
     0.5                0.000000e+00 0.000000e+00 0.000000e+00 0.000000e+00 0.000000e+00 0.000000e+00 0.000000e+00 0.000000e+00 0.000000e+00 0.000000e+00 0.000000e+00 0.000000e+00 
     1.5                0.000000e+00 0.000000e+00 0.000000e+00 0.000000e+00 0.000000e+00 0.000000e+00 0.000000e+00 0.000000e+00 0.000000e+00 0.000000e+00 0.000000e+00 0.000000e+00 
     2.5                0.000000e+00 0.000000e+00 0.000000e+00 0.000000e+00 0.000000e+00 0.000000e+00 0.000000e+00 0.000000e+00 0.000000e+00 0.000000e+00 0.000000e+00 0.000000e+00 
     3.5                1.129360e-04 8.824718e-06 2.497295e-05 2.901549e-05 4.549409e-05 9.642495e-07 3.122806e-05 2.497244e-05 2.901606e-05 7.677034e-05 1.313904e-04 1.370405e-04 
     4.5                2.981221e-04 7.007551e-06 8.137225e-05 7.529420e-05 7.597027e-05 3.570249e-05 1.040439e-04 8.137072e-05 7.529570e-05 2.097749e-04 3.306170e-04 3.612488e-04 
     5.5                6.241284e-04 1.460427e-04 2.502624e-04 2.739654e-04 3.383797e-04 2.975278e-05 2.767270e-04 2.502600e-04 2.739680e-04 6.887650e-04 8.902558e-04 9.836776e-04 
     6.5                1.692726e-03 4.554598e-04 7.176917e-04 7.275984e-04 1.229093e-03 8.444476e-05 7.826975e-04 7.176851e-04 7.276047e-04 2.144393e-03 2.680496e-03 2.756841e-03 
     7.5                3.076375e-03 1.196759e-03 1.552349e-03 1.631707e-03 2.804219e-03 1.678382e-04 1.601349e-03 1.552340e-03 1.631717e-03 4.723790e-03 5.510775e-03 5.740128e-03 
     8.5                5.326295e-03 2.376257e-03 2.790827e-03 2.948829e-03 5.574455e-03 2.677271e-04 2.877646e-03 2.790812e-03 2.948845e-03 8.945730e-03 1.034830e-02 1.048715e-02 
     9.5                8.266043e-03 4.196292e-03 5.232098e-03 5.282332e-03 1.081334e-02 3.695297e-04 5.171247e-03 5.232077e-03 5.282353e-03 1.668984e-02 1.762423e-02 1.772161e-02 
    10.5                1.156583e-02 5.378559e-03 7.722022e-03 7.963607e-03 1.644384e-02 3.165011e-04 7.637597e-03 7.721989e-03 7.963639e-03 2.501717e-02 2.518198e-02 2.517909e-02 
    11.5                1.339158e-02 7.026681e-03 1.047957e-02 1.080281e-02 2.369247e-02 3.765591e-04 1.012366e-02 1.047953e-02 1.080284e-02 3.486719e-02 3.308901e-02 3.201033e-02 
    12.5                1.906321e-02 7.450939e-03 1.495401e-02 1.538530e-02 3.357037e-02 3.002782e-04 1.460234e-02 1.495395e-02 1.538536e-02 4.913895e-02 4.527110e-02 4.394919e-02 
    13.5                2.339230e-02 9.001658e-03 2.036150e-02 2.072113e-02 4.513442e-02 3.409972e-04 1.979306e-02 2.036142e-02 2.072120e-02 6.620957e-02 5.898320e-02 5.717891e-02 
    14.5                2.541734e-02 9.582828e-03 2.525454e-02 2.615772e-02 5.365218e-02 2.794533e-04 2.438468e-02 2.525446e-02 2.615780e-02 8.009116e-02 6.790868e-02 6.728935e-02 
    15.5                3.127054e-02 1.017076e-02 3.203140e-02 3.234054e-02 6.656042e-02 2.995811e-04 3.111141e-02 3.203129e-02 3.234065e-02 9.977518e-02 8.333968e-02 8.329678e-02 
    16.5                3.668962e-02 9.971442e-03 3.913959e-02 4.006420e-02 7.990196e-02 3.326559e-04 3.809127e-02 3.913945e-02 4.006434e-02 1.210435e-01 9.820235e-02 9.977987e-02 
    17.5                3.995065e-02 9.598263e-03 4.556678e-02 4.633234e-02 8.800854e-02 2.860638e-04 4.446824e-02 4.556663e-02 4.633249e-02 1.365303e-01 1.079711e-01 1.134660e-01 
    18.5                3.750384e-02 8.889631e-03 5.192959e-02 5.282053e-02 9.389753e-02 2.752256e-04 5.033387e-02 5.192944e-02 5.282068e-02 1.502261e-01 1.121381e-01 1.226198e-01 
    19.5                4.328588e-02 7.489628e-03 6.020714e-02 6.109936e-02 1.056873e-01 2.814085e-04 5.871115e-02 6.020696e-02 6.109955e-02 1.718966e-01 1.255164e-01 1.413756e-01 
    20.5                4.177505e-02 5.841956e-03 6.547728e-02 6.659959e-02 1.100385e-01 2.546091e-04 6.369842e-02 6.547710e-02 6.659978e-02 1.834890e-01 1.283764e-01 1.494840e-01 
    21.5                4.340694e-02 3.992009e-03 7.273026e-02 7.389128e-02 1.152205e-01 2.580088e-04 7.087853e-02 7.273005e-02 7.389148e-02 1.983826e-01 1.334804e-01 1.625531e-01 
    22.5                4.324737e-02 2.202751e-03 7.869694e-02 7.922689e-02 1.157935e-01 2.842973e-04 7.689443e-02 7.869673e-02 7.922710e-02 2.073103e-01 1.336093e-01 1.718311e-01 
    23.5                4.491118e-02 7.418216e-04 8.354651e-02 8.451920e-02 1.153611e-01 2.493685e-04 8.187005e-02 8.354628e-02 8.451943e-02 2.148532e-01 1.330769e-01 1.810277e-01 
    24.5                4.584377e-02 9.386386e-05 8.703742e-02 8.747543e-02 1.114267e-01 2.261187e-04 8.557861e-02 8.703718e-02 8.747567e-02 2.172474e-01 1.287369e-01 1.856807e-01 
    25.5                4.935051e-02 9.526190e-07 8.960031e-02 9.017234e-02 1.085262e-01 2.137421e-04 8.849268e-02 8.960005e-02 9.017259e-02 2.197430e-01 1.269462e-01 1.910263e-01 
    26.5                5.207564e-02 0.000000e+00 9.148283e-02 9.221376e-02 1.035748e-01 1.882540e-04 9.073460e-02 9.148256e-02 9.221403e-02 2.198241e-01 1.229447e-01 1.944384e-01 
    27.5                5.470843e-02 0.000000e+00 9.229640e-02 9.214976e-02 9.684692e-02 1.871761e-04 9.199827e-02 9.229612e-02 9.215004e-02 2.163155e-01 1.176955e-01 1.952900e-01 
    28.5                5.621769e-02 0.000000e+00 9.071097e-02 9.101663e-02 8.866491e-02 1.664601e-04 9.083388e-02 9.071068e-02 9.101692e-02 2.089586e-01 1.107710e-01 1.924251e-01 
    29.5                5.902942e-02 0.000000e+00 9.058653e-02 9.040489e-02 8.283200e-02 1.454730e-04 9.115195e-02 9.058622e-02 9.040519e-02 2.051297e-01 1.071075e-01 1.921163e-01 
    30.5                5.911087e-02 0.000000e+00 8.657770e-02 8.605282e-02 7.461197e-02 1.186226e-04 8.750953e-02 8.657739e-02 8.605313e-02 1.934301e-01 9.996261e-02 1.838794e-01 
    31.5                5.885971e-02 0.000000e+00 8.237825e-02 8.190488e-02 6.522475e-02 1.200509e-04 8.367889e-02 8.237794e-02 8.190519e-02 1.810027e-01 9.201261e-02 1.755068e-01 
    32.5                5.807715e-02 0.000000e+00 7.737865e-02 7.632293e-02 5.638473e-02 9.404273e-05 7.900914e-02 7.737835e-02 7.632323e-02 1.671846e-01 8.458751e-02 1.650749e-01 
    33.5                5.708954e-02 0.000000e+00 7.160413e-02 7.110306e-02 4.818514e-02 7.917188e-05 7.352583e-02 7.160384e-02 7.110336e-02 1.533590e-01 7.785676e-02 1.543288e-01 
    34.5                5.398160e-02 0.000000e+00 6.456750e-02 6.374409e-02 4.031117e-02 6.769262e-05 6.663259e-02 6.456721e-02 6.374436e-02 1.367050e-01 7.000724e-02 1.396816e-01 
    35.5                4.950934e-02 0.000000e+00 5.676909e-02 5.546105e-02 3.225895e-02 5.282162e-05 5.887925e-02 5.676883e-02 5.546130e-02 1.183450e-01 6.114678e-02 1.229933e-01 
    36.5                4.477605e-02 0.000000e+00 4.889365e-02 4.775301e-02 2.526155e-02 4.253983e-05 5.097911e-02 4.889342e-02 4.775324e-02 1.010083e-01 5.294607e-02 1.067457e-01 
    37.5                4.009428e-02 0.000000e+00 4.177014e-02 4.085808e-02 1.945611e-02 2.998693e-05 4.378263e-02 4.176993e-02 4.085828e-02 8.565838e-02 4.568961e-02 9.200003e-02 
    38.5                3.452527e-02 0.000000e+00 3.430192e-02 3.342940e-02 1.424634e-02 2.148189e-05 3.615257e-02 3.430174e-02 3.342958e-02 6.972500e-02 3.812119e-02 7.612696e-02 
    39.5                2.858611e-02 0.000000e+00 2.722009e-02 2.624012e-02 1.006645e-02 1.719197e-05 2.884573e-02 2.721994e-02 2.624027e-02 5.475372e-02 3.082369e-02 6.069751e-02 
    40.5                2.291433e-02 0.000000e+00 2.088802e-02 2.003289e-02 6.746404e-03 8.115852e-06 2.225516e-02 2.088789e-02 2.003301e-02 4.166372e-02 2.418955e-02 4.694247e-02 
    41.5                1.693639e-02 0.000000e+00 1.485081e-02 1.406194e-02 4.144758e-03 6.221643e-06 1.591096e-02 1.485072e-02 1.406202e-02 2.932131e-02 1.760842e-02 3.353230e-02 
    42.5                1.187825e-02 0.000000e+00 9.945347e-03 9.469108e-03 2.331649e-03 4.231606e-06 1.071389e-02 9.945283e-03 9.469168e-03 1.960316e-02 1.218240e-02 2.277202e-02 
    43.5                7.670117e-03 0.000000e+00 6.270100e-03 5.750488e-03 1.171064e-03 1.857196e-06 6.792339e-03 6.270058e-03 5.750526e-03 1.209982e-02 7.792297e-03 1.426501e-02 
    44.5                4.366096e-03 0.000000e+00 3.427846e-03 3.122877e-03 5.252955e-04 1.042976e-06 3.733704e-03 3.427822e-03 3.122898e-03 6.587056e-03 4.414102e-03 7.875817e-03 
    45.5                2.054570e-03 0.000000e+00 1.567184e-03 1.405820e-03 1.720693e-04 3.950742e-07 1.715975e-03 1.567173e-03 1.405830e-03 2.980390e-03 2.065066e-03 3.614568e-03 
    46.5                6.478169e-04 0.000000e+00 4.981477e-04 4.026431e-04 4.087054e-05 1.809405e-07 5.481680e-04 4.981440e-04 4.026461e-04 9.051007e-04 6.517675e-04 1.110091e-03 
    47.5                1.292013e-04 0.000000e+00 9.610299e-05 7.922655e-05 4.379438e-06 3.592691e-08 1.061939e-04 9.610226e-05 7.922716e-05 1.754391e-04 1.293484e-04 2.178046e-04 
    48.5                7.738253e-06 0.000000e+00 7.622285e-06 2.671277e-06 1.361190e-07 2.287150e-09 8.449008e-06 7.622225e-06 2.671298e-06 1.029474e-05 7.739821e-06 1.287803e-05 
    49.5                0.000000e+00 0.000000e+00 0.000000e+00 0.000000e+00 0.000000e+00 0.000000e+00 0.000000e+00 0.000000e+00 0.000000e+00 0.000000e+00 0.000000e+00 0.000000e+00 
    50.5                0.000000e+00 0.000000e+00 0.000000e+00 0.000000e+00 0.000000e+00 0.000000e+00 0.000000e+00 0.000000e+00 0.000000e+00 0.000000e+00 0.000000e+00 0.000000e+00 
    51.5                0.000000e+00 0.000000e+00 0.000000e+00 0.000000e+00 0.000000e+00 0.000000e+00 0.000000e+00 0.000000e+00 0.000000e+00 0.000000e+00 0.000000e+00 0.000000e+00 
    52.5                0.000000e+00 0.000000e+00 0.000000e+00 0.000000e+00 0.000000e+00 0.000000e+00 0.000000e+00 0.000000e+00 0.000000e+00 0.000000e+00 0.000000e+00 0.000000e+00 
    53.5                0.000000e+00 0.000000e+00 0.000000e+00 0.000000e+00 0.000000e+00 0.000000e+00 0.000000e+00 0.000000e+00 0.000000e+00 0.000000e+00 0.000000e+00 0.000000e+00 
    54.5                0.000000e+00 0.000000e+00 0.000000e+00 0.000000e+00 0.000000e+00 0.000000e+00 0.000000e+00 0.000000e+00 0.000000e+00 0.000000e+00 0.000000e+00 0.000000e+00 
    55.5                0.000000e+00 0.000000e+00 0.000000e+00 0.000000e+00 0.000000e+00 0.000000e+00 0.000000e+00 0.000000e+00 0.000000e+00 0.000000e+00 0.000000e+00 0.000000e+00 
    56.5                0.000000e+00 0.000000e+00 0.000000e+00 0.000000e+00 0.000000e+00 0.000000e+00 0.000000e+00 0.000000e+00 0.000000e+00 0.000000e+00 0.000000e+00 0.000000e+00 
    57.5                0.000000e+00 0.000000e+00 0.000000e+00 0.000000e+00 0.000000e+00 0.000000e+00 0.000000e+00 0.000000e+00 0.000000e+00 0.000000e+00 0.000000e+00 0.000000e+00 
    58.5                0.000000e+00 0.000000e+00 0.000000e+00 0.000000e+00 0.000000e+00 0.000000e+00 0.000000e+00 0.000000e+00 0.000000e+00 0.000000e+00 0.000000e+00 0.000000e+00 
    59.5                0.000000e+00 0.000000e+00 0.000000e+00 0.000000e+00 0.000000e+00 0.000000e+00 0.000000e+00 0.000000e+00 0.000000e+00 0.000000e+00 0.000000e+00 0.000000e+00 
    60.5                0.000000e+00 0.000000e+00 0.000000e+00 0.000000e+00 0.000000e+00 0.000000e+00 0.000000e+00 0.000000e+00 0.000000e+00 0.000000e+00 0.000000e+00 0.000000e+00 
    61.5                0.000000e+00 0.000000e+00 0.000000e+00 0.000000e+00 0.000000e+00 0.000000e+00 0.000000e+00 0.000000e+00 0.000000e+00 0.000000e+00 0.000000e+00 0.000000e+00 
    62.5                0.000000e+00 0.000000e+00 0.000000e+00 0.000000e+00 0.000000e+00 0.000000e+00 0.000000e+00 0.000000e+00 0.000000e+00 0.000000e+00 0.000000e+00 0.000000e+00 
    63.5                0.000000e+00 0.000000e+00 0.000000e+00 0.000000e+00 0.000000e+00 0.000000e+00 0.000000e+00 0.000000e+00 0.000000e+00 0.000000e+00 0.000000e+00 0.000000e+00 
    64.5                0.000000e+00 0.000000e+00 0.000000e+00 0.000000e+00 0.000000e+00 0.000000e+00 0.000000e+00 0.000000e+00 0.000000e+00 0.000000e+00 0.000000e+00 0.000000e+00 
    65.5                0.000000e+00 0.000000e+00 0.000000e+00 0.000000e+00 0.000000e+00 0.000000e+00 0.000000e+00 0.000000e+00 0.000000e+00 0.000000e+00 0.000000e+00 0.000000e+00 
    66.5                0.000000e+00 0.000000e+00 0.000000e+00 0.000000e+00 0.000000e+00 0.000000e+00 0.000000e+00 0.000000e+00 0.000000e+00 0.000000e+00 0.000000e+00 0.000000e+00 
    67.5                0.000000e+00 0.000000e+00 0.000000e+00 0.000000e+00 0.000000e+00 0.000000e+00 0.000000e+00 0.000000e+00 0.000000e+00 0.000000e+00 0.000000e+00 0.000000e+00 
    68.5                0.000000e+00 0.000000e+00 0.000000e+00 0.000000e+00 0.000000e+00 0.000000e+00 0.000000e+00 0.000000e+00 0.000000e+00 0.000000e+00 0.000000e+00 0.000000e+00 
    69.5                0.000000e+00 0.000000e+00 0.000000e+00 0.000000e+00 0.000000e+00 0.000000e+00 0.000000e+00 0.000000e+00 0.000000e+00 0.000000e+00 0.000000e+00 0.000000e+00 
    70.5                0.000000e+00 0.000000e+00 0.000000e+00 0.000000e+00 0.000000e+00 0.000000e+00 0.000000e+00 0.000000e+00 0.000000e+00 0.000000e+00 0.000000e+00 0.000000e+00 
    71.5                0.000000e+00 0.000000e+00 0.000000e+00 0.000000e+00 0.000000e+00 0.000000e+00 0.000000e+00 0.000000e+00 0.000000e+00 0.000000e+00 0.000000e+00 0.000000e+00 
    72.5                0.000000e+00 0.000000e+00 0.000000e+00 0.000000e+00 0.000000e+00 0.000000e+00 0.000000e+00 0.000000e+00 0.000000e+00 0.000000e+00 0.000000e+00 0.000000e+00 
    73.5                0.000000e+00 0.000000e+00 0.000000e+00 0.000000e+00 0.000000e+00 0.000000e+00 0.000000e+00 0.000000e+00 0.000000e+00 0.000000e+00 0.000000e+00 0.000000e+00 
    74.5                0.000000e+00 0.000000e+00 0.000000e+00 0.000000e+00 0.000000e+00 0.000000e+00 0.000000e+00 0.000000e+00 0.000000e+00 0.000000e+00 0.000000e+00 0.000000e+00 
    75.5                0.000000e+00 0.000000e+00 0.000000e+00 0.000000e+00 0.000000e+00 0.000000e+00 0.000000e+00 0.000000e+00 0.000000e+00 0.000000e+00 0.000000e+00 0.000000e+00 
    76.5                0.000000e+00 0.000000e+00 0.000000e+00 0.000000e+00 0.000000e+00 0.000000e+00 0.000000e+00 0.000000e+00 0.000000e+00 0.000000e+00 0.000000e+00 0.000000e+00 
    77.5                0.000000e+00 0.000000e+00 0.000000e+00 0.000000e+00 0.000000e+00 0.000000e+00 0.000000e+00 0.000000e+00 0.000000e+00 0.000000e+00 0.000000e+00 0.000000e+00 
    78.5                0.000000e+00 0.000000e+00 0.000000e+00 0.000000e+00 0.000000e+00 0.000000e+00 0.000000e+00 0.000000e+00 0.000000e+00 0.000000e+00 0.000000e+00 0.000000e+00 
    79.5                0.000000e+00 0.000000e+00 0.000000e+00 0.000000e+00 0.000000e+00 0.000000e+00 0.000000e+00 0.000000e+00 0.000000e+00 0.000000e+00 0.000000e+00 0.000000e+00 


