# 80 rows of flux data
# 12 columns of flux data
# 
# total cross-sectional flux  2.088206e+00 /m^2/yr
#
#                             +x ram      -x wake      +y port -y starboard    +z zenith     -z nadir        Earth          Sun     anti-Sun      rot (x)      rot (y)      rot (z) 
# average speed (km/s)         43.56        11.48        29.44        29.43        31.83        31.80        40.96        29.44        29.43        31.02        36.82        38.10 
# total flux (#/m2/yr)  1.116136e+00 3.783774e-02 3.489235e-01 3.489273e-01 6.316578e-01 6.309513e-01 7.372846e-01 3.489289e-01 3.489360e-01 1.557909e+00 1.855153e+00 1.502607e+00 
# velocity (km/s)
     0.5                3.287585e-06 2.457882e-06 2.687995e-06 2.690907e-06 2.682047e-06 2.645643e-06 3.059780e-06 2.687973e-06 2.690804e-06 8.408372e-06 8.631967e-06 8.692744e-06 
     1.5                7.086240e-05 5.076864e-05 5.127760e-05 5.182786e-05 5.025600e-05 5.037147e-05 6.046701e-05 5.127706e-05 5.182519e-05 1.597195e-04 1.739952e-04 1.760044e-04 
     2.5                3.493821e-04 2.331376e-04 2.522065e-04 2.551702e-04 2.498849e-04 2.503791e-04 2.987547e-04 2.522041e-04 2.551604e-04 7.905122e-04 8.450638e-04 8.519076e-04 
     3.5                8.498743e-04 5.944850e-04 7.200004e-04 7.175777e-04 6.915314e-04 7.031347e-04 7.872715e-04 7.199854e-04 7.175903e-04 2.225443e-03 2.206033e-03 2.248254e-03 
     4.5                1.500604e-03 1.093650e-03 1.470303e-03 1.472496e-03 1.421749e-03 1.417190e-03 1.493614e-03 1.470266e-03 1.472590e-03 4.538631e-03 4.227048e-03 4.324177e-03 
     5.5                2.174460e-03 1.642830e-03 2.418490e-03 2.417745e-03 2.363462e-03 2.368463e-03 2.328855e-03 2.418464e-03 2.417815e-03 7.504873e-03 6.660528e-03 6.781882e-03 
     6.5                2.906178e-03 2.250636e-03 3.496481e-03 3.510341e-03 3.515815e-03 3.534574e-03 3.247896e-03 3.496360e-03 3.510417e-03 1.101787e-02 9.551722e-03 9.568704e-03 
     7.5                3.520695e-03 2.794348e-03 4.594856e-03 4.598656e-03 4.801055e-03 4.816534e-03 4.143165e-03 4.594882e-03 4.598736e-03 1.473709e-02 1.252387e-02 1.223228e-02 
     8.5                4.172000e-03 3.250494e-03 5.628940e-03 5.640637e-03 6.133760e-03 6.158857e-03 5.028163e-03 5.629003e-03 5.640628e-03 1.846128e-02 1.557900e-02 1.479388e-02 
     9.5                4.806049e-03 3.470727e-03 6.602272e-03 6.608454e-03 7.506868e-03 7.534190e-03 5.840141e-03 6.602341e-03 6.608398e-03 2.214367e-02 1.848700e-02 1.700851e-02 
    10.5                5.399100e-03 3.372415e-03 7.478748e-03 7.486375e-03 8.821296e-03 8.879107e-03 6.609033e-03 7.478895e-03 7.486360e-03 2.562988e-02 2.107442e-02 1.881798e-02 
    11.5                6.044569e-03 3.188647e-03 8.265199e-03 8.278392e-03 1.011472e-02 1.016582e-02 7.383581e-03 8.265401e-03 8.278350e-03 2.890528e-02 2.359629e-02 2.048275e-02 
    12.5                6.554501e-03 2.931797e-03 8.824973e-03 8.829367e-03 1.122033e-02 1.127123e-02 7.944596e-03 8.825118e-03 8.829339e-03 3.153436e-02 2.567919e-02 2.162036e-02 
    13.5                7.204092e-03 2.636259e-03 9.326449e-03 9.322595e-03 1.231401e-02 1.237377e-02 8.532734e-03 9.326504e-03 9.322664e-03 3.407981e-02 2.781775e-02 2.275960e-02 
    14.5                7.850398e-03 2.296205e-03 9.682911e-03 9.676041e-03 1.316155e-02 1.323262e-02 9.046050e-03 9.682963e-03 9.676104e-03 3.599400e-02 2.949200e-02 2.362091e-02 
    15.5                8.448405e-03 1.952430e-03 9.894495e-03 9.896187e-03 1.395900e-02 1.402519e-02 9.411850e-03 9.894577e-03 9.896243e-03 3.763713e-02 3.103524e-02 2.421250e-02 
    16.5                9.123517e-03 1.617869e-03 1.008197e-02 1.007919e-02 1.468011e-02 1.473440e-02 9.764871e-03 1.008209e-02 1.007923e-02 3.910534e-02 3.246443e-02 2.481080e-02 
    17.5                9.737369e-03 1.300987e-03 1.016475e-02 1.016195e-02 1.525543e-02 1.529647e-02 1.004381e-02 1.016491e-02 1.016199e-02 4.017393e-02 3.362043e-02 2.519279e-02 
    18.5                1.044965e-02 1.012204e-03 1.016842e-02 1.016737e-02 1.585477e-02 1.583730e-02 1.026493e-02 1.016847e-02 1.016742e-02 4.115529e-02 3.481426e-02 2.551827e-02 
    19.5                1.102772e-02 7.549322e-04 1.006364e-02 1.005930e-02 1.616942e-02 1.610385e-02 1.035004e-02 1.006377e-02 1.005938e-02 4.148311e-02 3.545711e-02 2.557901e-02 
    20.5                1.172010e-02 5.284135e-04 9.898333e-03 9.895623e-03 1.643322e-02 1.643060e-02 1.045410e-02 9.898469e-03 9.895666e-03 4.173729e-02 3.615136e-02 2.562000e-02 
    21.5                1.240256e-02 3.468374e-04 9.707056e-03 9.710739e-03 1.653031e-02 1.659699e-02 1.050637e-02 9.707289e-03 9.710777e-03 4.170502e-02 3.655772e-02 2.564651e-02 
    22.5                1.296193e-02 2.148068e-04 9.452639e-03 9.463400e-03 1.659822e-02 1.661213e-02 1.047251e-02 9.452700e-03 9.463458e-03 4.141676e-02 3.675559e-02 2.548056e-02 
    23.5                1.365852e-02 1.248574e-04 9.191722e-03 9.202489e-03 1.667393e-02 1.659337e-02 1.053360e-02 9.191803e-03 9.202754e-03 4.111247e-02 3.700530e-02 2.544045e-02 
    24.5                1.404769e-02 7.505135e-05 8.847668e-03 8.865109e-03 1.630690e-02 1.636980e-02 1.042244e-02 8.847803e-03 8.865263e-03 4.010826e-02 3.654071e-02 2.500306e-02 
    25.5                1.471741e-02 4.938100e-05 8.515234e-03 8.511768e-03 1.630320e-02 1.617924e-02 1.039470e-02 8.515267e-03 8.512112e-03 3.948960e-02 3.658303e-02 2.484502e-02 
    26.5                1.525396e-02 3.058689e-05 8.184347e-03 8.179488e-03 1.604667e-02 1.601672e-02 1.040463e-02 8.184529e-03 8.179656e-03 3.867093e-02 3.638231e-02 2.462568e-02 
    27.5                1.564143e-02 1.537379e-05 7.836576e-03 7.840838e-03 1.570193e-02 1.569100e-02 1.032646e-02 7.836606e-03 7.841090e-03 3.760415e-02 3.589007e-02 2.428919e-02 
    28.5                1.589374e-02 4.824414e-06 7.435709e-03 7.442480e-03 1.522567e-02 1.528662e-02 1.021027e-02 7.435683e-03 7.442754e-03 3.628600e-02 3.516606e-02 2.379154e-02 
    29.5                1.621379e-02 3.303997e-07 7.050815e-03 7.058277e-03 1.487852e-02 1.490359e-02 1.008831e-02 7.050975e-03 7.058576e-03 3.511360e-02 3.462144e-02 2.339862e-02 
    30.5                1.679768e-02 0.000000e+00 6.691346e-03 6.689570e-03 1.457730e-02 1.456524e-02 1.019999e-02 6.691668e-03 6.689509e-03 3.408163e-02 3.435973e-02 2.332219e-02 
    31.5                1.689262e-02 0.000000e+00 6.324549e-03 6.326373e-03 1.398320e-02 1.388948e-02 1.017055e-02 6.324796e-03 6.326452e-03 3.244954e-02 3.330090e-02 2.282376e-02 
    32.5                1.714749e-02 0.000000e+00 6.027033e-03 5.998246e-03 1.356300e-02 1.351659e-02 1.023429e-02 6.027226e-03 5.998683e-03 3.133954e-02 3.272396e-02 2.254934e-02 
    33.5                1.712395e-02 0.000000e+00 5.675158e-03 5.651930e-03 1.293481e-02 1.294403e-02 1.010611e-02 5.675330e-03 5.652086e-03 2.981981e-02 3.169008e-02 2.201304e-02 
    34.5                1.711233e-02 0.000000e+00 5.344690e-03 5.331890e-03 1.248230e-02 1.242359e-02 1.003647e-02 5.344613e-03 5.332189e-03 2.855540e-02 3.078181e-02 2.153520e-02 
    35.5                1.698107e-02 0.000000e+00 5.068270e-03 5.070818e-03 1.192349e-02 1.181481e-02 9.872783e-03 5.068386e-03 5.070857e-03 2.716450e-02 2.969307e-02 2.101883e-02 
    36.5                1.731941e-02 0.000000e+00 4.836290e-03 4.841557e-03 1.157013e-02 1.153529e-02 1.009243e-02 4.836204e-03 4.841749e-03 2.630458e-02 2.937062e-02 2.099979e-02 
    37.5                1.739485e-02 0.000000e+00 4.610445e-03 4.617520e-03 1.116138e-02 1.105115e-02 1.013535e-02 4.610666e-03 4.617726e-03 2.522288e-02 2.868282e-02 2.075960e-02 
    38.5                1.748856e-02 0.000000e+00 4.413631e-03 4.422652e-03 1.068991e-02 1.052829e-02 1.028606e-02 4.414089e-03 4.422744e-03 2.406921e-02 2.796456e-02 2.058285e-02 
    39.5                1.806924e-02 0.000000e+00 4.271714e-03 4.286253e-03 1.048699e-02 1.036566e-02 1.068131e-02 4.271923e-03 4.286306e-03 2.357396e-02 2.806465e-02 2.092436e-02 
    40.5                1.864113e-02 0.000000e+00 4.156088e-03 4.171535e-03 1.029314e-02 1.014789e-02 1.097135e-02 4.156061e-03 4.171837e-03 2.307505e-02 2.815664e-02 2.130116e-02 
    41.5                1.895888e-02 0.000000e+00 4.014881e-03 4.008068e-03 9.860438e-03 9.751125e-03 1.111200e-02 4.014572e-03 4.008605e-03 2.213787e-02 2.779794e-02 2.141996e-02 
    42.5                1.939931e-02 0.000000e+00 3.912658e-03 3.911067e-03 9.599694e-03 9.473502e-03 1.148014e-02 3.912414e-03 3.911368e-03 2.154184e-02 2.771240e-02 2.169620e-02 
    43.5                2.044568e-02 0.000000e+00 3.870728e-03 3.851490e-03 9.433370e-03 9.513498e-03 1.221866e-02 3.870909e-03 3.851679e-03 2.136923e-02 2.841672e-02 2.261548e-02 
    44.5                2.186578e-02 0.000000e+00 3.849268e-03 3.820450e-03 9.404739e-03 9.567305e-03 1.300402e-02 3.848927e-03 3.820503e-03 2.137477e-02 2.952849e-02 2.392127e-02 
    45.5                2.217039e-02 0.000000e+00 3.827179e-03 3.787235e-03 9.281524e-03 9.265150e-03 1.336031e-02 3.827380e-03 3.787665e-03 2.093233e-02 2.938947e-02 2.413688e-02 
    46.5                2.292139e-02 0.000000e+00 3.793443e-03 3.758578e-03 9.149402e-03 9.055332e-03 1.386544e-02 3.794134e-03 3.758768e-03 2.059789e-02 2.976067e-02 2.480027e-02 
    47.5                2.509037e-02 0.000000e+00 3.850659e-03 3.831293e-03 9.371433e-03 9.173568e-03 1.528649e-02 3.851254e-03 3.831081e-03 2.099914e-02 3.174672e-02 2.690721e-02 
    48.5                2.680713e-02 0.000000e+00 3.888808e-03 3.889362e-03 9.230193e-03 9.304237e-03 1.623393e-02 3.889145e-03 3.889325e-03 2.105718e-02 3.317985e-02 2.856316e-02 
    49.5                2.832244e-02 0.000000e+00 3.926674e-03 3.945618e-03 9.176547e-03 9.259840e-03 1.717588e-02 3.926531e-03 3.945366e-03 2.101522e-02 3.439723e-02 3.002281e-02 
    50.5                2.958719e-02 0.000000e+00 3.943717e-03 3.950692e-03 9.021985e-03 8.978403e-03 1.805921e-02 3.943309e-03 3.951544e-03 2.063921e-02 3.527276e-02 3.122981e-02 
    51.5                3.107048e-02 0.000000e+00 4.000320e-03 3.996992e-03 8.783031e-03 8.832963e-03 1.897741e-02 4.000315e-03 3.997656e-03 2.035939e-02 3.635591e-02 3.267452e-02 
    52.5                3.277339e-02 0.000000e+00 4.044668e-03 4.050803e-03 8.592326e-03 8.565277e-03 1.991352e-02 4.044393e-03 4.051414e-03 2.004420e-02 3.770061e-02 3.434062e-02 
    53.5                3.494296e-02 0.000000e+00 4.124820e-03 4.125793e-03 8.355486e-03 8.412991e-03 2.115184e-02 4.125297e-03 4.125592e-03 1.980953e-02 3.954995e-02 3.647166e-02 
    54.5                3.708664e-02 0.000000e+00 4.118417e-03 4.134617e-03 8.164788e-03 8.222486e-03 2.226661e-02 4.119378e-03 4.134204e-03 1.949686e-02 4.136910e-02 3.855349e-02 
    55.5                3.550081e-02 0.000000e+00 3.918283e-03 3.919226e-03 7.561911e-03 7.560543e-03 2.128676e-02 3.918428e-03 3.918914e-03 1.816821e-02 3.932267e-02 3.687209e-02 
    56.5                3.491525e-02 0.000000e+00 3.769987e-03 3.770289e-03 6.995255e-03 6.966528e-03 2.096515e-02 3.769670e-03 3.770431e-03 1.700688e-02 3.832042e-02 3.620173e-02 
    57.5                3.326288e-02 0.000000e+00 3.560145e-03 3.574174e-03 6.356147e-03 6.384421e-03 1.988938e-02 3.559677e-03 3.574235e-03 1.574060e-02 3.627990e-02 3.444938e-02 
    58.5                3.059985e-02 0.000000e+00 3.310852e-03 3.320697e-03 5.718922e-03 5.696844e-03 1.832491e-02 3.310588e-03 3.320760e-03 1.428001e-02 3.320466e-02 3.168041e-02 
    59.5                2.812236e-02 0.000000e+00 3.002691e-03 3.007070e-03 5.051582e-03 5.002454e-03 1.679685e-02 3.002615e-03 3.007588e-03 1.268181e-02 3.031849e-02 2.908057e-02 
    60.5                2.641138e-02 0.000000e+00 2.719612e-03 2.726459e-03 4.432441e-03 4.438529e-03 1.574734e-02 2.719830e-03 2.726635e-03 1.129720e-02 2.825429e-02 2.725452e-02 
    61.5                2.434814e-02 0.000000e+00 2.420366e-03 2.404181e-03 3.781741e-03 3.793269e-03 1.449690e-02 2.420516e-03 2.404608e-03 9.774547e-03 2.583842e-02 2.507383e-02 
    62.5                2.204220e-02 0.000000e+00 2.077054e-03 2.093040e-03 3.174747e-03 3.153101e-03 1.305305e-02 2.077382e-03 2.093179e-03 8.280253e-03 2.322348e-02 2.265051e-02 
    63.5                1.848775e-02 0.000000e+00 1.749941e-03 1.739732e-03 2.527971e-03 2.474833e-03 1.094732e-02 1.749616e-03 1.739971e-03 6.689489e-03 1.937997e-02 1.898049e-02 
    64.5                1.555602e-02 0.000000e+00 1.408783e-03 1.399378e-03 1.982122e-03 1.969705e-03 9.162411e-03 1.408984e-03 1.399326e-03 5.324156e-03 1.621522e-02 1.593517e-02 
    65.5                1.225324e-02 0.000000e+00 1.076756e-03 1.071078e-03 1.465917e-03 1.448089e-03 7.206457e-03 1.076878e-03 1.071233e-03 3.987340e-03 1.270724e-02 1.253186e-02 
    66.5                9.723093e-03 0.000000e+00 8.023346e-04 8.081568e-04 1.022796e-03 1.039786e-03 5.708583e-03 8.025649e-04 8.079325e-04 2.890906e-03 1.001781e-02 9.918239e-03 
    67.5                7.177144e-03 0.000000e+00 5.526823e-04 5.588301e-04 6.987833e-04 6.790414e-04 4.200190e-03 5.526729e-04 5.588828e-04 1.958904e-03 7.355528e-03 7.302522e-03 
    68.5                5.050780e-03 0.000000e+00 3.556044e-04 3.602450e-04 4.502361e-04 4.305069e-04 2.944547e-03 3.556420e-04 3.603879e-04 1.256448e-03 5.150987e-03 5.123406e-03 
    69.5                3.377189e-03 0.000000e+00 2.051546e-04 2.034768e-04 2.448309e-04 2.257529e-04 1.975333e-03 2.051917e-04 2.034113e-04 6.913918e-04 3.421229e-03 3.412564e-03 
    70.5                1.750657e-03 0.000000e+00 8.461834e-05 8.410651e-05 9.911150e-05 8.238089e-05 1.028653e-03 8.449370e-05 8.420880e-05 2.761030e-04 1.763737e-03 1.762299e-03 
    71.5                4.422637e-04 0.000000e+00 1.401236e-05 1.421183e-05 1.642074e-05 1.162394e-05 2.618469e-04 1.392276e-05 1.429632e-05 4.430932e-05 4.435624e-04 4.435796e-04 
    72.5                7.904729e-07 0.000000e+00 7.712765e-09 9.288832e-09 9.656216e-09 7.685630e-09 4.849128e-07 7.450172e-09 9.585007e-09 2.692836e-08 7.907542e-07 7.907463e-07 
    73.5                0.000000e+00 0.000000e+00 0.000000e+00 0.000000e+00 0.000000e+00 0.000000e+00 0.000000e+00 0.000000e+00 0.000000e+00 0.000000e+00 0.000000e+00 0.000000e+00 
    74.5                0.000000e+00 0.000000e+00 0.000000e+00 0.000000e+00 0.000000e+00 0.000000e+00 0.000000e+00 0.000000e+00 0.000000e+00 0.000000e+00 0.000000e+00 0.000000e+00 
    75.5                0.000000e+00 0.000000e+00 0.000000e+00 0.000000e+00 0.000000e+00 0.000000e+00 0.000000e+00 0.000000e+00 0.000000e+00 0.000000e+00 0.000000e+00 0.000000e+00 
    76.5                0.000000e+00 0.000000e+00 0.000000e+00 0.000000e+00 0.000000e+00 0.000000e+00 0.000000e+00 0.000000e+00 0.000000e+00 0.000000e+00 0.000000e+00 0.000000e+00 
    77.5                0.000000e+00 0.000000e+00 0.000000e+00 0.000000e+00 0.000000e+00 0.000000e+00 0.000000e+00 0.000000e+00 0.000000e+00 0.000000e+00 0.000000e+00 0.000000e+00 
    78.5                0.000000e+00 0.000000e+00 0.000000e+00 0.000000e+00 0.000000e+00 0.000000e+00 0.000000e+00 0.000000e+00 0.000000e+00 0.000000e+00 0.000000e+00 0.000000e+00 
    79.5                0.000000e+00 0.000000e+00 0.000000e+00 0.000000e+00 0.000000e+00 0.000000e+00 0.000000e+00 0.000000e+00 0.000000e+00 0.000000e+00 0.000000e+00 0.000000e+00 


