# 80 rows of flux data
# 12 columns of flux data
# 
# total cross-sectional flux  2.083782e+00 /m^2/yr
#
#                             +x ram      -x wake      +y port -y starboard    +z zenith     -z nadir        Earth          Sun     anti-Sun      rot (x)      rot (y)      rot (z) 
# average speed (km/s)         43.63        11.46        29.38        29.38        31.82        31.91        36.52        29.38        29.38        31.02        36.87        38.11 
# total flux (#/m2/yr)  1.114344e+00 3.823355e-02 3.490628e-01 3.490655e-01 6.290391e-01 6.289137e-01 5.000221e-01 3.490632e-01 3.490704e-01 1.553060e+00 1.850515e+00 1.501516e+00 
# velocity (km/s)
     0.5                0.000000e+00 4.191149e-07 3.241300e-07 1.118701e-07 0.000000e+00 3.130993e-07 2.605787e-07 3.245420e-07 1.102662e-07 6.281890e-07 5.277292e-07 6.865197e-07 
     1.5                5.915894e-05 4.567826e-05 4.666039e-05 4.378138e-05 3.113791e-05 3.603086e-05 4.935259e-05 4.665012e-05 4.376427e-05 1.235932e-04 1.332933e-04 1.502516e-04 
     2.5                3.609086e-04 2.216246e-04 2.696627e-04 2.727307e-04 2.098489e-04 2.265390e-04 2.951189e-04 2.696583e-04 2.727337e-04 7.664894e-04 7.970641e-04 8.744375e-04 
     3.5                9.332414e-04 6.444463e-04 8.345255e-04 8.308920e-04 7.218808e-04 7.104891e-04 8.620909e-04 8.345324e-04 8.309118e-04 2.419444e-03 2.332483e-03 2.513388e-03 
     4.5                1.645151e-03 1.115026e-03 1.649581e-03 1.641776e-03 1.498892e-03 1.466033e-03 1.682816e-03 1.649580e-03 1.641706e-03 4.901073e-03 4.449511e-03 4.720030e-03 
     5.5                2.300140e-03 1.654071e-03 2.628362e-03 2.639074e-03 2.459682e-03 2.444338e-03 2.588436e-03 2.628510e-03 2.639247e-03 7.959278e-03 6.892894e-03 7.237770e-03 
     6.5                3.048059e-03 2.330965e-03 3.697250e-03 3.700731e-03 3.645412e-03 3.672917e-03 3.614289e-03 3.697270e-03 3.700707e-03 1.152170e-02 9.935128e-03 1.005562e-02 
     7.5                3.470322e-03 2.798805e-03 4.708805e-03 4.684464e-03 4.964017e-03 4.858536e-03 4.530024e-03 4.708990e-03 4.684517e-03 1.503873e-02 1.267288e-02 1.237787e-02 
     8.5                4.053688e-03 3.260106e-03 5.608211e-03 5.652266e-03 6.114810e-03 6.058760e-03 5.367262e-03 5.608098e-03 5.652353e-03 1.834398e-02 1.542928e-02 1.471690e-02 
     9.5                4.676300e-03 3.526695e-03 6.594792e-03 6.569286e-03 7.456208e-03 7.466803e-03 6.242605e-03 6.594895e-03 6.569437e-03 2.201092e-02 1.832667e-02 1.691313e-02 
    10.5                5.281320e-03 3.424738e-03 7.442578e-03 7.492964e-03 8.905973e-03 8.766328e-03 7.030897e-03 7.442683e-03 7.493040e-03 2.556734e-02 2.100376e-02 1.873506e-02 
    11.5                6.204810e-03 3.232968e-03 8.347952e-03 8.288138e-03 1.034622e-02 1.019356e-02 7.976051e-03 8.347919e-03 8.288298e-03 2.917408e-02 2.395582e-02 2.070852e-02 
    12.5                6.709602e-03 2.936658e-03 8.870768e-03 8.935811e-03 1.134145e-02 1.126467e-02 8.414488e-03 8.871021e-03 8.935873e-03 3.171892e-02 2.584637e-02 2.184202e-02 
    13.5                7.083144e-03 2.696720e-03 9.331043e-03 9.329211e-03 1.258321e-02 1.239116e-02 8.825227e-03 9.331056e-03 9.329371e-03 3.431713e-02 2.808419e-02 2.271167e-02 
    14.5                7.869409e-03 2.270888e-03 9.708805e-03 9.737543e-03 1.334384e-02 1.329235e-02 9.255806e-03 9.708948e-03 9.737667e-03 3.621862e-02 2.968448e-02 2.367042e-02 
    15.5                8.251673e-03 1.918390e-03 9.834681e-03 9.794255e-03 1.396564e-02 1.367181e-02 9.426086e-03 9.834668e-03 9.794177e-03 3.723341e-02 3.062329e-02 2.391781e-02 
    16.5                8.998152e-03 1.622732e-03 1.016031e-02 1.013842e-02 1.478883e-02 1.463204e-02 9.742613e-03 1.016045e-02 1.013855e-02 3.917339e-02 3.241368e-02 2.482885e-02 
    17.5                9.336791e-03 1.312005e-03 1.004461e-02 1.003145e-02 1.500278e-02 1.478264e-02 9.743763e-03 1.004463e-02 1.003166e-02 3.935165e-02 3.272992e-02 2.469511e-02 
    18.5                1.031695e-02 1.028990e-03 1.012914e-02 1.027507e-02 1.580793e-02 1.586766e-02 9.896847e-03 1.012932e-02 1.027526e-02 4.114842e-02 3.473170e-02 2.547751e-02 
    19.5                1.097945e-02 7.545753e-04 1.012382e-02 9.980570e-03 1.616937e-02 1.598654e-02 9.907807e-03 1.012374e-02 9.980519e-03 4.139638e-02 3.533272e-02 2.554537e-02 
    20.5                1.144161e-02 5.387937e-04 9.852074e-03 9.885758e-03 1.621782e-02 1.615085e-02 9.625806e-03 9.852182e-03 9.885960e-03 4.116153e-02 3.554953e-02 2.529433e-02 
    21.5                1.244461e-02 3.605726e-04 9.783957e-03 9.871682e-03 1.639178e-02 1.633158e-02 9.683215e-03 9.784177e-03 9.871885e-03 4.145623e-02 3.624142e-02 2.584159e-02 
    22.5                1.313970e-02 2.250536e-04 9.724708e-03 9.592705e-03 1.688893e-02 1.671224e-02 9.678218e-03 9.724938e-03 9.592665e-03 4.198896e-02 3.720326e-02 2.589993e-02 
    23.5                1.359076e-02 1.266368e-04 9.122624e-03 9.131360e-03 1.651139e-02 1.655611e-02 9.318958e-03 9.122475e-03 9.131679e-03 4.080994e-02 3.678975e-02 2.527849e-02 
    24.5                1.366743e-02 8.385105e-05 8.824104e-03 8.843139e-03 1.600581e-02 1.590997e-02 8.962738e-03 8.824364e-03 8.843237e-03 3.935139e-02 3.570250e-02 2.463889e-02 
    25.5                1.426901e-02 5.275607e-05 8.538436e-03 8.333944e-03 1.592697e-02 1.584300e-02 8.822407e-03 8.538327e-03 8.333855e-03 3.874118e-02 3.571914e-02 2.433387e-02 
    26.5                1.529615e-02 2.981121e-05 8.135541e-03 8.279327e-03 1.586572e-02 1.603553e-02 8.681067e-03 8.135723e-03 8.279446e-03 3.855332e-02 3.627183e-02 2.468607e-02 
    27.5                1.533769e-02 1.468934e-05 7.802458e-03 7.715821e-03 1.568966e-02 1.531378e-02 8.598713e-03 7.802349e-03 7.716061e-03 3.718156e-02 3.537041e-02 2.391931e-02 
    28.5                1.547184e-02 4.556628e-06 7.319163e-03 7.365464e-03 1.486601e-02 1.493084e-02 8.053543e-03 7.319561e-03 7.365603e-03 3.555604e-02 3.434079e-02 2.328053e-02 
    29.5                1.565960e-02 3.234927e-07 6.922568e-03 6.912311e-03 1.458623e-02 1.446677e-02 7.645683e-03 6.922410e-03 6.912360e-03 3.426316e-02 3.369714e-02 2.271280e-02 
    30.5                1.667606e-02 0.000000e+00 6.595554e-03 6.580566e-03 1.436577e-02 1.452327e-02 7.662972e-03 6.595539e-03 6.580602e-03 3.374667e-02 3.415603e-02 2.311581e-02 
    31.5                1.637002e-02 0.000000e+00 6.246196e-03 6.357522e-03 1.383042e-02 1.354514e-02 7.528204e-03 6.246347e-03 6.357806e-03 3.194262e-02 3.254257e-02 2.227975e-02 
    32.5                1.652221e-02 0.000000e+00 5.882480e-03 5.706160e-03 1.308191e-02 1.290710e-02 7.304369e-03 5.882414e-03 5.706070e-03 3.013723e-02 3.147687e-02 2.174346e-02 
    33.5                1.698624e-02 0.000000e+00 5.437007e-03 5.553358e-03 1.254511e-02 1.267485e-02 7.072658e-03 5.437377e-03 5.553567e-03 2.904754e-02 3.111252e-02 2.171725e-02 
    34.5                1.730506e-02 0.000000e+00 5.362254e-03 5.359613e-03 1.248803e-02 1.280283e-02 7.024257e-03 5.361773e-03 5.359518e-03 2.893113e-02 3.121504e-02 2.173311e-02 
    35.5                1.662842e-02 0.000000e+00 4.977782e-03 4.962070e-03 1.148885e-02 1.171733e-02 6.552847e-03 4.978018e-03 4.962060e-03 2.660877e-02 2.907987e-02 2.061211e-02 
    36.5                1.803201e-02 0.000000e+00 4.845877e-03 4.848274e-03 1.178273e-02 1.201023e-02 6.980590e-03 4.845874e-03 4.848542e-03 2.692716e-02 3.037894e-02 2.164277e-02 
    37.5                1.719692e-02 0.000000e+00 4.561314e-03 4.546611e-03 1.103616e-02 1.112155e-02 6.598688e-03 4.560954e-03 4.546498e-03 2.511342e-02 2.849351e-02 2.052544e-02 
    38.5                1.795348e-02 0.000000e+00 4.442445e-03 4.421893e-03 1.037836e-02 1.090134e-02 6.558495e-03 4.442725e-03 4.421816e-03 2.413410e-02 2.835221e-02 2.102414e-02 
    39.5                1.800726e-02 0.000000e+00 4.258234e-03 4.330919e-03 1.042363e-02 1.014528e-02 6.742281e-03 4.258491e-03 4.331159e-03 2.332442e-02 2.782729e-02 2.086527e-02 
    40.5                1.849405e-02 0.000000e+00 4.130130e-03 4.246347e-03 1.005148e-02 1.047912e-02 6.459949e-03 4.131055e-03 4.246331e-03 2.312530e-02 2.809056e-02 2.113551e-02 
    41.5                1.866005e-02 0.000000e+00 4.085457e-03 3.983349e-03 1.002980e-02 9.856860e-03 6.599515e-03 4.083950e-03 3.983904e-03 2.235973e-02 2.771681e-02 2.111135e-02 
    42.5                1.997801e-02 0.000000e+00 4.096264e-03 3.998843e-03 9.579032e-03 9.841402e-03 6.908497e-03 4.096299e-03 3.998613e-03 2.197405e-02 2.839927e-02 2.231068e-02 
    43.5                1.994674e-02 0.000000e+00 3.603429e-03 3.618275e-03 8.847788e-03 8.963168e-03 7.057966e-03 3.603526e-03 3.618081e-03 2.004496e-02 2.740911e-02 2.196182e-02 
    44.5                2.248721e-02 0.000000e+00 3.877248e-03 3.968622e-03 9.475157e-03 9.917037e-03 7.656908e-03 3.877137e-03 3.968978e-03 2.187560e-02 3.026947e-02 2.457013e-02 
    45.5                2.273632e-02 0.000000e+00 3.807603e-03 3.741214e-03 9.533135e-03 9.204905e-03 8.077819e-03 3.807723e-03 3.740770e-03 2.111912e-02 2.993688e-02 2.467363e-02 
    46.5                2.161069e-02 0.000000e+00 3.578160e-03 3.727598e-03 8.528420e-03 9.129515e-03 7.291805e-03 3.578656e-03 3.727728e-03 1.994875e-02 2.832179e-02 2.344040e-02 
    47.5                2.539109e-02 0.000000e+00 3.896495e-03 3.811950e-03 9.403496e-03 9.197278e-03 8.533069e-03 3.895903e-03 3.812031e-03 2.103780e-02 3.204145e-02 2.720086e-02 
    48.5                2.519161e-02 0.000000e+00 3.737297e-03 3.689569e-03 8.994586e-03 8.716916e-03 8.442299e-03 3.737126e-03 3.689507e-03 2.012592e-02 3.137177e-02 2.688410e-02 
    49.5                2.845476e-02 0.000000e+00 3.964660e-03 4.011971e-03 9.622193e-03 9.088042e-03 9.339548e-03 3.964584e-03 4.012026e-03 2.129841e-02 3.464508e-02 3.017170e-02 
    50.5                3.089929e-02 0.000000e+00 4.057693e-03 4.041388e-03 9.355279e-03 9.476286e-03 1.006092e-02 4.057481e-03 4.041839e-03 2.149226e-02 3.685907e-02 3.254821e-02 
    51.5                3.207098e-02 0.000000e+00 4.100809e-03 4.261865e-03 9.119186e-03 9.167299e-03 1.008538e-02 4.101211e-03 4.262111e-03 2.110929e-02 3.756245e-02 3.373543e-02 
    52.5                3.435470e-02 0.000000e+00 4.267806e-03 4.118537e-03 8.716037e-03 9.132116e-03 1.064358e-02 4.267736e-03 4.118062e-03 2.073912e-02 3.945291e-02 3.593014e-02 
    53.5                3.372572e-02 0.000000e+00 3.982258e-03 3.981056e-03 8.229591e-03 8.169273e-03 1.042893e-02 3.982352e-03 3.980744e-03 1.928403e-02 3.824790e-02 3.519844e-02 
    54.5                3.514404e-02 0.000000e+00 4.032991e-03 3.951012e-03 7.872830e-03 7.712756e-03 1.136284e-02 4.032404e-03 3.951195e-03 1.863222e-02 3.921450e-02 3.658762e-02 
    55.5                3.593369e-02 0.000000e+00 3.741762e-03 3.822660e-03 7.351709e-03 7.461447e-03 1.106371e-02 3.741678e-03 3.822879e-03 1.772463e-02 3.962304e-02 3.723765e-02 
    56.5                3.579735e-02 0.000000e+00 3.882349e-03 3.898881e-03 7.107327e-03 7.357852e-03 1.112607e-02 3.881860e-03 3.898722e-03 1.752333e-02 3.931079e-02 3.710847e-02 
    57.5                3.411780e-02 0.000000e+00 3.680257e-03 3.669435e-03 6.694512e-03 6.387454e-03 1.060871e-02 3.680588e-03 3.669513e-03 1.607616e-02 3.719288e-02 3.531403e-02 
    58.5                2.975937e-02 0.000000e+00 3.236948e-03 3.266565e-03 5.737944e-03 5.592485e-03 9.353963e-03 3.236657e-03 3.266596e-03 1.411520e-02 3.238173e-02 3.081761e-02 
    59.5                2.860774e-02 0.000000e+00 3.078922e-03 3.017466e-03 5.028988e-03 5.110025e-03 8.851817e-03 3.078819e-03 3.017414e-03 1.277728e-02 3.080391e-02 2.956690e-02 
    60.5                2.836622e-02 0.000000e+00 2.838084e-03 2.899773e-03 4.798117e-03 4.890989e-03 8.501533e-03 2.838159e-03 2.899935e-03 1.213592e-02 3.037462e-02 2.922432e-02 
    61.5                2.334054e-02 0.000000e+00 2.374353e-03 2.345511e-03 3.627107e-03 3.759872e-03 7.255967e-03 2.374342e-03 2.345837e-03 9.519738e-03 2.480677e-02 2.405102e-02 
    62.5                2.166318e-02 0.000000e+00 2.057213e-03 2.056319e-03 3.175477e-03 3.137332e-03 6.639974e-03 2.057101e-03 2.056202e-03 8.222976e-03 2.283824e-02 2.225965e-02 
    63.5                1.791899e-02 0.000000e+00 1.718491e-03 1.719078e-03 2.389803e-03 2.458009e-03 5.597792e-03 1.718657e-03 1.719400e-03 6.506219e-03 1.878348e-02 1.840574e-02 
    64.5                1.604349e-02 0.000000e+00 1.452841e-03 1.485109e-03 2.054137e-03 2.160929e-03 4.988798e-03 1.452662e-03 1.486014e-03 5.616812e-03 1.675484e-02 1.643631e-02 
    65.5                1.322474e-02 0.000000e+00 1.103347e-03 1.095074e-03 1.562441e-03 1.577993e-03 3.961369e-03 1.103222e-03 1.094575e-03 4.213411e-03 1.370943e-02 1.350369e-02 
    66.5                9.755197e-03 0.000000e+00 8.288542e-04 8.143126e-04 1.057016e-03 1.079058e-03 2.997681e-03 8.288700e-04 8.142335e-04 2.971726e-03 1.006552e-02 9.954238e-03 
    67.5                7.105477e-03 0.000000e+00 5.484760e-04 5.570031e-04 6.844231e-04 7.121807e-04 2.226345e-03 5.485588e-04 5.571040e-04 1.970483e-03 7.289268e-03 7.230610e-03 
    68.5                4.807672e-03 0.000000e+00 3.487210e-04 3.442112e-04 4.014529e-04 4.369891e-04 1.527695e-03 3.486622e-04 3.442230e-04 1.207519e-03 4.905484e-03 4.879071e-03 
    69.5                3.157867e-03 0.000000e+00 1.926483e-04 1.916189e-04 2.065205e-04 2.376377e-04 1.040623e-03 1.926931e-04 1.916478e-04 6.530462e-04 3.201014e-03 3.191663e-03 
    70.5                1.635575e-03 0.000000e+00 8.069531e-05 8.006290e-05 6.776216e-05 9.680612e-05 6.067821e-04 8.067068e-05 8.006664e-05 2.570079e-04 1.647608e-03 1.646803e-03 
    71.5                3.880286e-04 0.000000e+00 1.384196e-05 1.377040e-05 7.871928e-06 1.559578e-05 1.756927e-04 1.384246e-05 1.377147e-05 4.002570e-05 3.891147e-04 3.893707e-04 
    72.5                1.670645e-06 0.000000e+00 1.683658e-08 1.768634e-08 3.610895e-08 1.011533e-08 9.784399e-07 1.683658e-08 1.768634e-08 6.400970e-08 1.671466e-06 1.671247e-06 
    73.5                0.000000e+00 0.000000e+00 0.000000e+00 0.000000e+00 0.000000e+00 0.000000e+00 0.000000e+00 0.000000e+00 0.000000e+00 0.000000e+00 0.000000e+00 0.000000e+00 
    74.5                0.000000e+00 0.000000e+00 0.000000e+00 0.000000e+00 0.000000e+00 0.000000e+00 0.000000e+00 0.000000e+00 0.000000e+00 0.000000e+00 0.000000e+00 0.000000e+00 
    75.5                0.000000e+00 0.000000e+00 0.000000e+00 0.000000e+00 0.000000e+00 0.000000e+00 0.000000e+00 0.000000e+00 0.000000e+00 0.000000e+00 0.000000e+00 0.000000e+00 
    76.5                0.000000e+00 0.000000e+00 0.000000e+00 0.000000e+00 0.000000e+00 0.000000e+00 0.000000e+00 0.000000e+00 0.000000e+00 0.000000e+00 0.000000e+00 0.000000e+00 
    77.5                0.000000e+00 0.000000e+00 0.000000e+00 0.000000e+00 0.000000e+00 0.000000e+00 0.000000e+00 0.000000e+00 0.000000e+00 0.000000e+00 0.000000e+00 0.000000e+00 
    78.5                0.000000e+00 0.000000e+00 0.000000e+00 0.000000e+00 0.000000e+00 0.000000e+00 0.000000e+00 0.000000e+00 0.000000e+00 0.000000e+00 0.000000e+00 0.000000e+00 
    79.5                0.000000e+00 0.000000e+00 0.000000e+00 0.000000e+00 0.000000e+00 0.000000e+00 0.000000e+00 0.000000e+00 0.000000e+00 0.000000e+00 0.000000e+00 0.000000e+00 


