# 80 rows of flux data
# 12 columns of flux data
# 
# total cross-sectional flux  2.006778e+00 /m^2/yr
#
#                             +x ram      -x wake      +y port -y starboard    +z zenith     -z nadir        Earth          Sun     anti-Sun      rot (x)      rot (y)      rot (z) 
# average speed (km/s)         43.71        11.39        29.45        29.06        31.44        31.63        37.52        29.34        29.16        30.64        36.65        37.54 
# total flux (#/m2/yr)  1.055218e+00 4.088353e-02 3.721511e-01 3.790717e-01 5.918777e-01 5.745773e-01 6.030998e-01 3.697048e-01 3.815099e-01 1.506248e+00 1.738945e+00 1.485336e+00 
# velocity (km/s)
     0.5                0.000000e+00 1.676460e-06 1.296520e-06 4.474802e-07 0.000000e+00 1.252397e-06 1.042315e-06 1.298168e-06 4.410647e-07 2.512756e-06 2.110917e-06 2.746079e-06 
     1.5                7.652989e-05 5.836392e-05 6.437820e-05 4.761293e-05 4.064502e-05 4.786416e-05 7.129188e-05 6.428241e-05 4.760481e-05 1.576484e-04 1.737806e-04 1.880925e-04 
     2.5                3.921265e-04 2.658507e-04 3.283697e-04 2.859383e-04 2.775544e-04 2.712116e-04 3.613932e-04 3.280421e-04 2.862193e-04 9.148985e-04 9.356929e-04 9.923292e-04 
     3.5                1.037036e-03 7.350970e-04 9.340416e-04 9.134395e-04 8.067259e-04 8.316194e-04 9.869990e-04 9.333555e-04 9.142077e-04 2.736971e-03 2.636782e-03 2.796638e-03 
     4.5                1.897916e-03 1.233492e-03 1.858907e-03 1.810976e-03 1.698012e-03 1.638431e-03 1.968576e-03 1.857277e-03 1.812546e-03 5.509835e-03 5.033873e-03 5.305500e-03 
     5.5                2.664617e-03 1.751235e-03 2.859815e-03 2.918772e-03 2.760485e-03 2.773750e-03 2.936085e-03 2.857929e-03 2.921284e-03 8.884915e-03 7.743548e-03 8.005055e-03 
     6.5                3.342637e-03 2.610777e-03 3.981872e-03 4.176298e-03 4.089282e-03 3.992858e-03 3.978142e-03 3.980195e-03 4.178143e-03 1.276867e-02 1.099684e-02 1.110137e-02 
     7.5                3.707708e-03 2.973225e-03 4.950972e-03 5.207553e-03 5.408086e-03 5.118714e-03 4.829220e-03 4.949372e-03 5.209487e-03 1.628353e-02 1.358691e-02 1.333627e-02 
     8.5                4.404374e-03 3.614817e-03 6.122632e-03 6.296599e-03 6.797171e-03 6.648676e-03 5.930176e-03 6.120796e-03 6.298563e-03 2.034739e-02 1.698578e-02 1.622792e-02 
     9.5                4.998364e-03 3.798607e-03 6.944977e-03 7.345585e-03 8.197637e-03 7.789531e-03 6.699465e-03 6.942508e-03 7.348889e-03 2.382601e-02 1.965549e-02 1.832102e-02 
    10.5                5.758625e-03 3.653994e-03 7.992385e-03 8.379740e-03 9.457462e-03 9.373484e-03 7.796954e-03 7.987593e-03 8.385080e-03 2.770175e-02 2.246229e-02 2.050768e-02 
    11.5                6.705615e-03 3.422069e-03 9.040782e-03 9.431800e-03 1.114939e-02 1.058440e-02 8.933239e-03 9.032847e-03 9.439673e-03 3.163102e-02 2.545369e-02 2.278751e-02 
    12.5                7.202607e-03 3.110124e-03 9.523225e-03 1.011572e-02 1.200409e-02 1.192822e-02 9.468771e-03 9.514027e-03 1.012622e-02 3.428053e-02 2.738938e-02 2.388765e-02 
    13.5                7.385604e-03 2.853296e-03 9.995649e-03 1.053175e-02 1.326521e-02 1.255255e-02 9.835103e-03 9.984911e-03 1.054283e-02 3.644343e-02 2.911984e-02 2.466406e-02 
    14.5                8.295348e-03 2.370201e-03 1.037425e-02 1.096212e-02 1.410754e-02 1.366074e-02 1.042537e-02 1.036016e-02 1.097656e-02 3.859641e-02 3.105722e-02 2.568817e-02 
    15.5                8.474992e-03 1.985546e-03 1.063181e-02 1.093316e-02 1.451926e-02 1.364154e-02 1.074536e-02 1.061607e-02 1.094868e-02 3.910126e-02 3.130781e-02 2.579455e-02 
    16.5                9.212143e-03 1.681305e-03 1.087123e-02 1.131074e-02 1.522381e-02 1.472817e-02 1.111717e-02 1.085322e-02 1.132899e-02 4.101045e-02 3.307731e-02 2.663915e-02 
    17.5                9.481154e-03 1.355938e-03 1.075465e-02 1.122062e-02 1.526096e-02 1.449265e-02 1.109633e-02 1.073576e-02 1.124085e-02 4.067055e-02 3.284238e-02 2.641651e-02 
    18.5                1.036006e-02 1.065136e-03 1.084547e-02 1.161128e-02 1.564749e-02 1.592235e-02 1.138224e-02 1.082394e-02 1.163450e-02 4.246265e-02 3.476720e-02 2.727012e-02 
    19.5                1.094037e-02 7.746469e-04 1.097420e-02 1.107169e-02 1.649631e-02 1.482888e-02 1.163459e-02 1.094905e-02 1.109549e-02 4.196143e-02 3.462015e-02 2.708763e-02 
    20.5                1.157532e-02 5.685197e-04 1.062754e-02 1.112519e-02 1.609347e-02 1.577593e-02 1.142279e-02 1.060131e-02 1.115195e-02 4.206942e-02 3.524704e-02 2.705253e-02 
    21.5                1.238811e-02 4.035434e-04 1.051292e-02 1.106598e-02 1.601330e-02 1.595037e-02 1.158739e-02 1.048523e-02 1.109600e-02 4.205934e-02 3.564276e-02 2.738834e-02 
    22.5                1.264904e-02 2.438800e-04 1.043338e-02 1.048510e-02 1.648043e-02 1.504417e-02 1.155669e-02 1.040288e-02 1.051434e-02 4.119441e-02 3.519309e-02 2.681638e-02 
    23.5                1.256612e-02 1.404975e-04 9.737163e-03 1.004312e-02 1.553303e-02 1.492429e-02 1.093207e-02 9.707200e-03 1.007299e-02 3.946982e-02 3.403621e-02 2.565450e-02 
    24.5                1.285169e-02 9.315201e-05 9.282691e-03 9.694778e-03 1.504128e-02 1.435310e-02 1.059573e-02 9.252180e-03 9.725701e-03 3.794891e-02 3.314937e-02 2.502998e-02 
    25.5                1.262754e-02 6.074724e-05 9.028429e-03 8.773439e-03 1.469969e-02 1.314191e-02 1.035338e-02 8.997197e-03 8.802725e-03 3.582661e-02 3.147942e-02 2.372636e-02 
    26.5                1.345766e-02 3.520138e-05 8.398912e-03 8.983535e-03 1.361170e-02 1.367064e-02 1.001664e-02 8.367254e-03 9.016507e-03 3.503936e-02 3.136006e-02 2.385224e-02 
    27.5                1.310786e-02 1.712290e-05 8.107696e-03 8.076823e-03 1.339698e-02 1.240379e-02 9.713465e-03 8.075980e-03 8.108146e-03 3.297157e-02 2.974769e-02 2.253089e-02 
    28.5                1.317560e-02 5.106847e-06 7.350046e-03 7.740004e-03 1.242771e-02 1.206718e-02 9.065643e-03 7.319080e-03 7.772457e-03 3.110274e-02 2.860263e-02 2.166162e-02 
    29.5                1.351405e-02 3.593417e-07 7.125354e-03 7.177465e-03 1.239961e-02 1.166747e-02 8.932338e-03 7.092265e-03 7.209452e-03 3.007099e-02 2.833713e-02 2.122842e-02 
    30.5                1.287770e-02 0.000000e+00 6.584733e-03 6.659479e-03 1.150559e-02 1.093439e-02 8.381513e-03 6.553573e-03 6.690331e-03 2.802182e-02 2.655881e-02 1.986370e-02 
    31.5                1.368483e-02 0.000000e+00 6.235839e-03 6.633703e-03 1.120366e-02 1.124718e-02 8.206657e-03 6.203767e-03 6.667526e-03 2.770441e-02 2.689330e-02 2.012305e-02 
    32.5                1.278313e-02 0.000000e+00 5.711993e-03 5.385315e-03 1.025083e-02 8.996142e-03 7.831927e-03 5.679855e-03 5.414738e-03 2.384834e-02 2.382092e-02 1.824339e-02 
    33.5                1.327522e-02 0.000000e+00 5.166600e-03 5.612565e-03 9.392176e-03 9.848353e-03 7.348841e-03 5.136049e-03 5.645937e-03 2.355923e-02 2.389546e-02 1.826332e-02 
    34.5                1.466263e-02 0.000000e+00 5.613478e-03 5.578406e-03 1.063803e-02 1.014765e-02 8.051231e-03 5.577136e-03 5.612672e-03 2.506056e-02 2.596789e-02 1.959027e-02 
    35.5                1.367816e-02 0.000000e+00 5.012982e-03 4.936807e-03 9.263881e-03 8.655962e-03 7.407802e-03 4.981404e-03 4.971097e-03 2.188049e-02 2.312860e-02 1.799618e-02 
    36.5                1.521664e-02 0.000000e+00 4.906631e-03 5.032577e-03 9.317637e-03 9.454496e-03 7.777386e-03 4.868781e-03 5.068002e-03 2.246034e-02 2.470840e-02 1.919079e-02 
    37.5                1.401728e-02 0.000000e+00 4.645654e-03 4.577852e-03 9.074621e-03 8.405639e-03 7.199715e-03 4.611290e-03 4.610990e-03 2.095408e-02 2.286423e-02 1.768985e-02 
    38.5                1.578008e-02 0.000000e+00 4.585875e-03 4.582499e-03 8.864008e-03 8.675344e-03 7.758562e-03 4.547793e-03 4.620407e-03 2.094052e-02 2.410683e-02 1.920199e-02 
    39.5                1.622211e-02 0.000000e+00 4.452275e-03 4.694299e-03 8.507107e-03 8.892879e-03 7.744492e-03 4.414111e-03 4.734250e-03 2.077870e-02 2.429515e-02 1.951313e-02 
    40.5                1.689189e-02 0.000000e+00 4.219471e-03 4.606199e-03 8.416373e-03 9.056145e-03 7.731005e-03 4.181143e-03 4.649210e-03 2.058289e-02 2.477233e-02 1.986883e-02 
    41.5                1.819851e-02 0.000000e+00 4.798023e-03 4.404785e-03 9.680923e-03 8.740192e-03 8.657767e-03 4.751925e-03 4.446327e-03 2.160221e-02 2.633791e-02 2.117742e-02 
    42.5                1.966700e-02 0.000000e+00 4.676394e-03 4.425695e-03 9.124669e-03 8.333759e-03 9.099561e-03 4.627338e-03 4.471349e-03 2.079724e-02 2.692979e-02 2.250724e-02 
    43.5                1.761963e-02 0.000000e+00 3.740335e-03 3.755817e-03 7.401752e-03 7.273406e-03 7.962308e-03 3.697703e-03 3.798033e-03 1.739535e-02 2.360639e-02 1.991948e-02 
    44.5                2.063396e-02 0.000000e+00 4.288301e-03 4.411534e-03 8.119556e-03 8.777712e-03 9.214638e-03 4.239879e-03 4.462475e-03 2.008869e-02 2.722549e-02 2.315918e-02 
    45.5                1.947508e-02 0.000000e+00 4.124727e-03 3.915492e-03 8.208065e-03 7.453002e-03 8.745840e-03 4.076178e-03 3.960728e-03 1.863108e-02 2.544002e-02 2.176338e-02 
    46.5                1.926556e-02 0.000000e+00 3.762615e-03 4.094056e-03 7.191762e-03 8.202814e-03 8.374389e-03 3.719553e-03 4.143765e-03 1.823464e-02 2.505029e-02 2.143010e-02 
    47.5                2.431709e-02 0.000000e+00 4.455926e-03 4.237799e-03 8.752601e-03 8.223925e-03 1.069635e-02 4.394818e-03 4.293795e-03 2.014669e-02 3.025304e-02 2.653976e-02 
    48.5                2.241544e-02 0.000000e+00 4.041216e-03 3.863135e-03 7.718754e-03 7.379421e-03 9.822904e-03 3.986407e-03 3.916270e-03 1.809248e-02 2.761432e-02 2.442339e-02 
    49.5                2.714756e-02 0.000000e+00 4.464691e-03 4.465925e-03 8.541269e-03 8.726232e-03 1.164669e-02 4.399297e-03 4.531262e-03 2.055926e-02 3.277870e-02 2.925132e-02 
    50.5                3.144531e-02 0.000000e+00 4.699966e-03 4.608626e-03 8.982004e-03 9.058411e-03 1.344257e-02 4.625351e-03 4.685439e-03 2.147617e-02 3.693221e-02 3.349653e-02 
    51.5                3.390637e-02 0.000000e+00 4.749957e-03 5.026358e-03 8.767585e-03 9.671458e-03 1.424218e-02 4.671367e-03 5.111042e-03 2.212551e-02 3.928022e-02 3.598703e-02 
    52.5                3.874582e-02 0.000000e+00 5.284206e-03 4.792529e-03 9.790004e-03 8.946323e-03 1.661169e-02 5.187157e-03 4.882067e-03 2.255574e-02 4.382660e-02 4.072791e-02 
    53.5                3.546830e-02 0.000000e+00 4.519550e-03 4.415554e-03 8.123651e-03 8.128588e-03 1.501347e-02 4.433067e-03 4.499871e-03 1.985666e-02 3.970053e-02 3.724263e-02 
    54.5                3.301580e-02 0.000000e+00 4.378913e-03 4.073452e-03 7.526773e-03 7.150431e-03 1.410157e-02 4.297415e-03 4.150947e-03 1.826324e-02 3.674333e-02 3.470498e-02 
    55.5                3.523129e-02 0.000000e+00 4.086391e-03 4.149809e-03 7.123500e-03 7.488114e-03 1.474945e-02 4.002521e-03 4.235596e-03 1.803105e-02 3.871980e-02 3.677146e-02 
    56.5                3.679551e-02 0.000000e+00 4.484083e-03 4.364089e-03 7.578418e-03 7.696053e-03 1.549040e-02 4.393853e-03 4.451051e-03 1.899131e-02 4.042601e-02 3.839026e-02 
    57.5                3.393375e-02 0.000000e+00 4.102442e-03 3.972638e-03 6.939779e-03 6.711788e-03 1.423569e-02 4.020632e-03 4.054239e-03 1.707891e-02 3.707450e-02 3.535797e-02 
    58.5                2.827513e-02 0.000000e+00 3.441531e-03 3.359674e-03 5.501668e-03 5.546833e-03 1.187669e-02 3.372988e-03 3.427291e-03 1.407130e-02 3.076818e-02 2.948675e-02 
    59.5                2.921972e-02 0.000000e+00 3.393969e-03 3.156146e-03 5.488227e-03 5.145152e-03 1.232561e-02 3.322308e-03 3.225198e-03 1.353777e-02 3.145156e-02 3.033524e-02 
    60.5                2.944644e-02 0.000000e+00 3.143865e-03 3.160134e-03 5.134020e-03 5.465412e-03 1.225941e-02 3.074263e-03 3.232332e-03 1.325077e-02 3.159781e-02 3.044485e-02 
    61.5                2.259280e-02 0.000000e+00 2.508761e-03 2.424739e-03 4.051385e-03 3.821444e-03 9.413534e-03 2.453801e-03 2.478576e-03 1.007422e-02 2.415589e-02 2.339025e-02 
    62.5                2.066006e-02 0.000000e+00 2.210258e-03 2.095051e-03 3.373386e-03 3.308406e-03 8.650396e-03 2.159605e-03 2.143889e-03 8.638400e-03 2.190520e-02 2.132492e-02 
    63.5                1.669579e-02 0.000000e+00 1.733803e-03 1.721264e-03 2.669847e-03 2.570921e-03 6.899574e-03 1.693946e-03 1.761807e-03 6.839694e-03 1.764670e-02 1.721733e-02 
    64.5                1.551845e-02 0.000000e+00 1.486116e-03 1.532396e-03 2.309633e-03 2.545080e-03 6.396537e-03 1.450394e-03 1.571404e-03 6.165600e-03 1.636290e-02 1.593656e-02 
    65.5                1.181872e-02 0.000000e+00 1.111695e-03 1.024557e-03 1.771460e-03 1.582734e-03 4.919415e-03 1.081832e-03 1.051608e-03 4.304505e-03 1.235461e-02 1.209911e-02 
    66.5                8.756094e-03 0.000000e+00 7.906777e-04 7.312808e-04 1.254840e-03 1.146165e-03 3.641938e-03 7.689235e-04 7.516927e-04 3.077097e-03 9.126901e-03 8.945835e-03 
    67.5                5.690983e-03 0.000000e+00 4.666170e-04 4.730731e-04 7.334074e-04 7.377513e-04 2.337560e-03 4.532787e-04 4.871399e-04 1.891521e-03 5.902749e-03 5.800275e-03 
    68.5                3.431907e-03 0.000000e+00 2.642090e-04 2.393937e-04 4.248118e-04 3.829645e-04 1.428635e-03 2.556914e-04 2.474029e-04 1.029460e-03 3.537264e-03 3.484582e-03 
    69.5                1.786588e-03 0.000000e+00 1.154966e-04 1.084585e-04 1.969409e-04 1.740963e-04 7.382760e-04 1.111656e-04 1.127310e-04 4.681653e-04 1.828899e-03 1.806686e-03 
    70.5                6.259444e-04 0.000000e+00 3.296633e-05 2.850951e-05 5.484064e-05 4.557010e-05 2.602555e-04 3.137773e-05 2.993523e-05 1.271714e-04 6.349177e-04 6.302828e-04 
    71.5                7.694891e-05 0.000000e+00 2.883534e-06 2.722939e-06 3.926517e-06 3.180251e-06 3.170608e-05 2.696333e-06 2.906291e-06 9.951700e-06 7.736665e-05 7.722242e-05 
    72.5                0.000000e+00 0.000000e+00 0.000000e+00 0.000000e+00 0.000000e+00 0.000000e+00 0.000000e+00 0.000000e+00 0.000000e+00 0.000000e+00 0.000000e+00 0.000000e+00 
    73.5                0.000000e+00 0.000000e+00 0.000000e+00 0.000000e+00 0.000000e+00 0.000000e+00 0.000000e+00 0.000000e+00 0.000000e+00 0.000000e+00 0.000000e+00 0.000000e+00 
    74.5                0.000000e+00 0.000000e+00 0.000000e+00 0.000000e+00 0.000000e+00 0.000000e+00 0.000000e+00 0.000000e+00 0.000000e+00 0.000000e+00 0.000000e+00 0.000000e+00 
    75.5                0.000000e+00 0.000000e+00 0.000000e+00 0.000000e+00 0.000000e+00 0.000000e+00 0.000000e+00 0.000000e+00 0.000000e+00 0.000000e+00 0.000000e+00 0.000000e+00 
    76.5                0.000000e+00 0.000000e+00 0.000000e+00 0.000000e+00 0.000000e+00 0.000000e+00 0.000000e+00 0.000000e+00 0.000000e+00 0.000000e+00 0.000000e+00 0.000000e+00 
    77.5                0.000000e+00 0.000000e+00 0.000000e+00 0.000000e+00 0.000000e+00 0.000000e+00 0.000000e+00 0.000000e+00 0.000000e+00 0.000000e+00 0.000000e+00 0.000000e+00 
    78.5                0.000000e+00 0.000000e+00 0.000000e+00 0.000000e+00 0.000000e+00 0.000000e+00 0.000000e+00 0.000000e+00 0.000000e+00 0.000000e+00 0.000000e+00 0.000000e+00 
    79.5                0.000000e+00 0.000000e+00 0.000000e+00 0.000000e+00 0.000000e+00 0.000000e+00 0.000000e+00 0.000000e+00 0.000000e+00 0.000000e+00 0.000000e+00 0.000000e+00 


