# 80 rows of flux data
# 12 columns of flux data
# 
# total cross-sectional flux  4.813233e+00 /m^2/yr
#
#                             +x ram      -x wake      +y port -y starboard    +z zenith     -z nadir        Earth          Sun     anti-Sun      rot (x)      rot (y)      rot (z) 
# average speed (km/s)         27.42        15.44        27.06        27.05        23.88        18.93        27.27        27.06        27.05        26.13        24.91        26.73 
# total flux (#/m2/yr)  1.343316e+00 1.096114e-01 1.845649e+00 1.825266e+00 2.077094e+00 7.714861e-03 1.843929e+00 1.848225e+00 1.822678e+00 4.481100e+00 2.765662e+00 4.091372e+00 
# velocity (km/s)
     0.5                0.000000e+00 0.000000e+00 0.000000e+00 0.000000e+00 0.000000e+00 0.000000e+00 0.000000e+00 0.000000e+00 0.000000e+00 0.000000e+00 0.000000e+00 0.000000e+00 
     1.5                0.000000e+00 0.000000e+00 0.000000e+00 0.000000e+00 0.000000e+00 0.000000e+00 0.000000e+00 0.000000e+00 0.000000e+00 0.000000e+00 0.000000e+00 0.000000e+00 
     2.5                0.000000e+00 0.000000e+00 0.000000e+00 0.000000e+00 0.000000e+00 0.000000e+00 0.000000e+00 0.000000e+00 0.000000e+00 0.000000e+00 0.000000e+00 0.000000e+00 
     3.5                2.672008e-05 1.214596e-05 1.123440e-05 1.074693e-05 1.263507e-05 0.000000e+00 1.181155e-05 1.126485e-05 1.071638e-05 2.545815e-05 4.088942e-05 4.469602e-05 
     4.5                2.290257e-04 4.096126e-05 8.470697e-05 8.552910e-05 9.386739e-05 3.198711e-05 9.727362e-05 8.510723e-05 8.514219e-05 2.278542e-04 3.041126e-04 3.294420e-04 
     5.5                9.864414e-04 1.507763e-04 2.417477e-04 2.808673e-04 5.378464e-04 2.994230e-05 3.002427e-04 2.433958e-04 2.790174e-04 8.667570e-04 1.317279e-03 1.338890e-03 
     6.5                1.659140e-03 4.727156e-04 7.815032e-04 7.380416e-04 1.077923e-03 1.049737e-04 8.545419e-04 7.840750e-04 7.356478e-04 2.077346e-03 2.581712e-03 2.795426e-03 
     7.5                3.617381e-03 1.167843e-03 1.650797e-03 1.708981e-03 3.266740e-03 1.550211e-04 1.720916e-03 1.655789e-03 1.703720e-03 5.259867e-03 6.200367e-03 6.300703e-03 
     8.5                5.178354e-03 2.537130e-03 3.214490e-03 3.174467e-03 5.606075e-03 3.014135e-04 3.215770e-03 3.220128e-03 3.169049e-03 9.434335e-03 1.032362e-02 1.082422e-02 
     9.5                7.913098e-03 4.355089e-03 5.353008e-03 5.268265e-03 1.089009e-02 3.724756e-04 5.223017e-03 5.360902e-03 5.261267e-03 1.694426e-02 1.752541e-02 1.769205e-02 
    10.5                1.004890e-02 5.938740e-03 8.188309e-03 8.055127e-03 1.624487e-02 4.159729e-04 7.886552e-03 8.196644e-03 8.046259e-03 2.527976e-02 2.431506e-02 2.461402e-02 
    11.5                1.388201e-02 6.714575e-03 1.107704e-02 1.105357e-02 2.361772e-02 3.607963e-04 1.072120e-02 1.109256e-02 1.103908e-02 3.537993e-02 3.337162e-02 3.278487e-02 
    12.5                1.756185e-02 8.121962e-03 1.577114e-02 1.572921e-02 3.338006e-02 3.645684e-04 1.516609e-02 1.579108e-02 1.570964e-02 4.992453e-02 4.465452e-02 4.396610e-02 
    13.5                2.174214e-02 9.415460e-03 2.117240e-02 2.077587e-02 4.430954e-02 3.661844e-04 2.035244e-02 2.119840e-02 2.075028e-02 6.602035e-02 5.744921e-02 5.672298e-02 
    14.5                2.754435e-02 1.040399e-02 2.694725e-02 2.672930e-02 5.704383e-02 3.301441e-04 2.599243e-02 2.698331e-02 2.669363e-02 8.483357e-02 7.275805e-02 7.166317e-02 
    15.5                3.017208e-02 1.045056e-02 3.316434e-02 3.278800e-02 6.712564e-02 3.430866e-04 3.190382e-02 3.320543e-02 3.274654e-02 1.014715e-01 8.321782e-02 8.366899e-02 
    16.5                3.535357e-02 1.045077e-02 4.076591e-02 4.012465e-02 8.023936e-02 3.716135e-04 3.931183e-02 4.081775e-02 4.007226e-02 1.227306e-01 9.813390e-02 1.002777e-01 
    17.5                3.714686e-02 9.969059e-03 4.704484e-02 4.665372e-02 8.843357e-02 3.160402e-04 4.537947e-02 4.710124e-02 4.659636e-02 1.382580e-01 1.066532e-01 1.125562e-01 
    18.5                3.849158e-02 8.976229e-03 5.363530e-02 5.295955e-02 9.604427e-02 3.158098e-04 5.181451e-02 5.369695e-02 5.289766e-02 1.538339e-01 1.145478e-01 1.252093e-01 
    19.5                4.061084e-02 7.586458e-03 6.183244e-02 6.112499e-02 1.042012e-01 3.027653e-04 5.978953e-02 6.190080e-02 6.105512e-02 1.719468e-01 1.227234e-01 1.403122e-01 
    20.5                4.186912e-02 5.874392e-03 6.722578e-02 6.669009e-02 1.098868e-01 3.062067e-04 6.518288e-02 6.730073e-02 6.661439e-02 1.849501e-01 1.282650e-01 1.513443e-01 
    21.5                4.266539e-02 3.989444e-03 7.430817e-02 7.341270e-02 1.137550e-01 2.788708e-04 7.217622e-02 7.438861e-02 7.333126e-02 1.979682e-01 1.317445e-01 1.628605e-01 
    22.5                4.274725e-02 2.151087e-03 8.012185e-02 7.948231e-02 1.146464e-01 3.216870e-04 7.800147e-02 8.020612e-02 7.939666e-02 2.077316e-01 1.321704e-01 1.727203e-01 
    23.5                4.455110e-02 7.407597e-04 8.476782e-02 8.381157e-02 1.142344e-01 2.723506e-04 8.285696e-02 8.485906e-02 8.371943e-02 2.146053e-01 1.319881e-01 1.812035e-01 
    24.5                4.648211e-02 9.057293e-05 8.856046e-02 8.792815e-02 1.112950e-01 2.620256e-04 8.690714e-02 8.865675e-02 8.783027e-02 2.189782e-01 1.291923e-01 1.878162e-01 
    25.5                4.893175e-02 6.779244e-07 9.039373e-02 8.949445e-02 1.075448e-01 2.410573e-04 8.905658e-02 9.049551e-02 8.939143e-02 2.194294e-01 1.258186e-01 1.909810e-01 
    26.5                5.209969e-02 0.000000e+00 9.270124e-02 9.174488e-02 1.028563e-01 2.185043e-04 9.175803e-02 9.280962e-02 9.163519e-02 2.201238e-01 1.224099e-01 1.951682e-01 
    27.5                5.483285e-02 0.000000e+00 9.302496e-02 9.219196e-02 9.579201e-02 2.029075e-04 9.257214e-02 9.313915e-02 9.207664e-02 2.163378e-01 1.169402e-01 1.960851e-01 
    28.5                5.605581e-02 0.000000e+00 9.146326e-02 9.080019e-02 8.833481e-02 1.916867e-04 9.141760e-02 9.157995e-02 9.068226e-02 2.095078e-01 1.104993e-01 1.928987e-01 
    29.5                5.943280e-02 0.000000e+00 9.141001e-02 9.065093e-02 8.275581e-02 1.652217e-04 9.185527e-02 9.153376e-02 9.052593e-02 2.062930e-01 1.074999e-01 1.933784e-01 
    30.5                5.905512e-02 0.000000e+00 8.731674e-02 8.614538e-02 7.370498e-02 1.345461e-04 8.813940e-02 8.744018e-02 8.602165e-02 1.936070e-01 9.926992e-02 1.846097e-01 
    31.5                5.895693e-02 0.000000e+00 8.293448e-02 8.210869e-02 6.506876e-02 1.325855e-04 8.413658e-02 8.305751e-02 8.198495e-02 1.817474e-01 9.206735e-02 1.762916e-01 
    32.5                5.824523e-02 0.000000e+00 7.803244e-02 7.716270e-02 5.649549e-02 1.129632e-04 7.957278e-02 7.815407e-02 7.704054e-02 1.687316e-01 8.487103e-02 1.665434e-01 
    33.5                5.714975e-02 0.000000e+00 7.218437e-02 7.143121e-02 4.817955e-02 9.152534e-05 7.403522e-02 7.230372e-02 7.131134e-02 1.542615e-01 7.794569e-02 1.552189e-01 
    34.5                5.446308e-02 0.000000e+00 6.546043e-02 6.472905e-02 4.042450e-02 7.789292e-05 6.748614e-02 6.557427e-02 6.461493e-02 1.385080e-01 7.052061e-02 1.415987e-01 
    35.5                5.009917e-02 0.000000e+00 5.756890e-02 5.670725e-02 3.272327e-02 6.195609e-05 5.964664e-02 5.767386e-02 5.660252e-02 1.205008e-01 6.195153e-02 1.251164e-01 
    36.5                4.550286e-02 0.000000e+00 4.969347e-02 4.906251e-02 2.567638e-02 4.900646e-05 5.177235e-02 4.978874e-02 4.896732e-02 1.031755e-01 5.383905e-02 1.089757e-01 
    37.5                4.085916e-02 0.000000e+00 4.259943e-02 4.208877e-02 1.985452e-02 3.512447e-05 4.461720e-02 4.268496e-02 4.200328e-02 8.778646e-02 4.660429e-02 9.419588e-02 
    38.5                3.532105e-02 0.000000e+00 3.516987e-02 3.460215e-02 1.471364e-02 2.676465e-05 3.703860e-02 3.524400e-02 3.452844e-02 7.184178e-02 3.907318e-02 7.831269e-02 
    39.5                2.969673e-02 0.000000e+00 2.813057e-02 2.775442e-02 1.052460e-02 2.088438e-05 2.979084e-02 2.819281e-02 2.769236e-02 5.723991e-02 3.205318e-02 6.336598e-02 
    40.5                2.396125e-02 0.000000e+00 2.184518e-02 2.125697e-02 7.164617e-03 9.884252e-06 2.326117e-02 2.189577e-02 2.120728e-02 4.390038e-02 2.533864e-02 4.936033e-02 
    41.5                1.814466e-02 0.000000e+00 1.572252e-02 1.542589e-02 4.494083e-03 7.955458e-06 1.683838e-02 1.576070e-02 1.538813e-02 3.159446e-02 1.888290e-02 3.607583e-02 
    42.5                1.272536e-02 0.000000e+00 1.060604e-02 1.034695e-02 2.572880e-03 5.441864e-06 1.141901e-02 1.063288e-02 1.032053e-02 2.116679e-02 1.307204e-02 2.452813e-02 
    43.5                8.592089e-03 0.000000e+00 6.883279e-03 6.674482e-03 1.353212e-03 2.649086e-06 7.454054e-03 6.901474e-03 6.656716e-03 1.365131e-02 8.737340e-03 1.605805e-02 
    44.5                5.095013e-03 0.000000e+00 3.919124e-03 3.782966e-03 6.301930e-04 1.494890e-06 4.267636e-03 3.929938e-03 3.772456e-03 7.745328e-03 5.153483e-03 9.238784e-03 
    45.5                2.516603e-03 0.000000e+00 1.878877e-03 1.776923e-03 2.206874e-04 5.275910e-07 2.057448e-03 1.884273e-03 1.771786e-03 3.665451e-03 2.530472e-03 4.439189e-03 
    46.5                8.789144e-04 0.000000e+00 6.358532e-04 5.958983e-04 5.852335e-05 2.640039e-07 6.996337e-04 6.377474e-04 5.941140e-04 1.236801e-03 8.838563e-04 1.513808e-03 
    47.5                1.925577e-04 0.000000e+00 1.348158e-04 1.271677e-04 7.073708e-06 6.233707e-08 1.490501e-04 1.352297e-04 1.267758e-04 2.621558e-04 1.927904e-04 3.251557e-04 
    48.5                2.815668e-05 0.000000e+00 1.923431e-05 1.822551e-05 4.544443e-07 1.926324e-08 2.134009e-05 1.929471e-05 1.816807e-05 3.746476e-05 2.816332e-05 4.686281e-05 
    49.5                0.000000e+00 0.000000e+00 0.000000e+00 0.000000e+00 0.000000e+00 0.000000e+00 0.000000e+00 0.000000e+00 0.000000e+00 0.000000e+00 0.000000e+00 0.000000e+00 
    50.5                0.000000e+00 0.000000e+00 0.000000e+00 0.000000e+00 0.000000e+00 0.000000e+00 0.000000e+00 0.000000e+00 0.000000e+00 0.000000e+00 0.000000e+00 0.000000e+00 
    51.5                0.000000e+00 0.000000e+00 0.000000e+00 0.000000e+00 0.000000e+00 0.000000e+00 0.000000e+00 0.000000e+00 0.000000e+00 0.000000e+00 0.000000e+00 0.000000e+00 
    52.5                0.000000e+00 0.000000e+00 0.000000e+00 0.000000e+00 0.000000e+00 0.000000e+00 0.000000e+00 0.000000e+00 0.000000e+00 0.000000e+00 0.000000e+00 0.000000e+00 
    53.5                0.000000e+00 0.000000e+00 0.000000e+00 0.000000e+00 0.000000e+00 0.000000e+00 0.000000e+00 0.000000e+00 0.000000e+00 0.000000e+00 0.000000e+00 0.000000e+00 
    54.5                0.000000e+00 0.000000e+00 0.000000e+00 0.000000e+00 0.000000e+00 0.000000e+00 0.000000e+00 0.000000e+00 0.000000e+00 0.000000e+00 0.000000e+00 0.000000e+00 
    55.5                0.000000e+00 0.000000e+00 0.000000e+00 0.000000e+00 0.000000e+00 0.000000e+00 0.000000e+00 0.000000e+00 0.000000e+00 0.000000e+00 0.000000e+00 0.000000e+00 
    56.5                0.000000e+00 0.000000e+00 0.000000e+00 0.000000e+00 0.000000e+00 0.000000e+00 0.000000e+00 0.000000e+00 0.000000e+00 0.000000e+00 0.000000e+00 0.000000e+00 
    57.5                0.000000e+00 0.000000e+00 0.000000e+00 0.000000e+00 0.000000e+00 0.000000e+00 0.000000e+00 0.000000e+00 0.000000e+00 0.000000e+00 0.000000e+00 0.000000e+00 
    58.5                0.000000e+00 0.000000e+00 0.000000e+00 0.000000e+00 0.000000e+00 0.000000e+00 0.000000e+00 0.000000e+00 0.000000e+00 0.000000e+00 0.000000e+00 0.000000e+00 
    59.5                0.000000e+00 0.000000e+00 0.000000e+00 0.000000e+00 0.000000e+00 0.000000e+00 0.000000e+00 0.000000e+00 0.000000e+00 0.000000e+00 0.000000e+00 0.000000e+00 
    60.5                0.000000e+00 0.000000e+00 0.000000e+00 0.000000e+00 0.000000e+00 0.000000e+00 0.000000e+00 0.000000e+00 0.000000e+00 0.000000e+00 0.000000e+00 0.000000e+00 
    61.5                0.000000e+00 0.000000e+00 0.000000e+00 0.000000e+00 0.000000e+00 0.000000e+00 0.000000e+00 0.000000e+00 0.000000e+00 0.000000e+00 0.000000e+00 0.000000e+00 
    62.5                0.000000e+00 0.000000e+00 0.000000e+00 0.000000e+00 0.000000e+00 0.000000e+00 0.000000e+00 0.000000e+00 0.000000e+00 0.000000e+00 0.000000e+00 0.000000e+00 
    63.5                0.000000e+00 0.000000e+00 0.000000e+00 0.000000e+00 0.000000e+00 0.000000e+00 0.000000e+00 0.000000e+00 0.000000e+00 0.000000e+00 0.000000e+00 0.000000e+00 
    64.5                0.000000e+00 0.000000e+00 0.000000e+00 0.000000e+00 0.000000e+00 0.000000e+00 0.000000e+00 0.000000e+00 0.000000e+00 0.000000e+00 0.000000e+00 0.000000e+00 
    65.5                0.000000e+00 0.000000e+00 0.000000e+00 0.000000e+00 0.000000e+00 0.000000e+00 0.000000e+00 0.000000e+00 0.000000e+00 0.000000e+00 0.000000e+00 0.000000e+00 
    66.5                0.000000e+00 0.000000e+00 0.000000e+00 0.000000e+00 0.000000e+00 0.000000e+00 0.000000e+00 0.000000e+00 0.000000e+00 0.000000e+00 0.000000e+00 0.000000e+00 
    67.5                0.000000e+00 0.000000e+00 0.000000e+00 0.000000e+00 0.000000e+00 0.000000e+00 0.000000e+00 0.000000e+00 0.000000e+00 0.000000e+00 0.000000e+00 0.000000e+00 
    68.5                0.000000e+00 0.000000e+00 0.000000e+00 0.000000e+00 0.000000e+00 0.000000e+00 0.000000e+00 0.000000e+00 0.000000e+00 0.000000e+00 0.000000e+00 0.000000e+00 
    69.5                0.000000e+00 0.000000e+00 0.000000e+00 0.000000e+00 0.000000e+00 0.000000e+00 0.000000e+00 0.000000e+00 0.000000e+00 0.000000e+00 0.000000e+00 0.000000e+00 
    70.5                0.000000e+00 0.000000e+00 0.000000e+00 0.000000e+00 0.000000e+00 0.000000e+00 0.000000e+00 0.000000e+00 0.000000e+00 0.000000e+00 0.000000e+00 0.000000e+00 
    71.5                0.000000e+00 0.000000e+00 0.000000e+00 0.000000e+00 0.000000e+00 0.000000e+00 0.000000e+00 0.000000e+00 0.000000e+00 0.000000e+00 0.000000e+00 0.000000e+00 
    72.5                0.000000e+00 0.000000e+00 0.000000e+00 0.000000e+00 0.000000e+00 0.000000e+00 0.000000e+00 0.000000e+00 0.000000e+00 0.000000e+00 0.000000e+00 0.000000e+00 
    73.5                0.000000e+00 0.000000e+00 0.000000e+00 0.000000e+00 0.000000e+00 0.000000e+00 0.000000e+00 0.000000e+00 0.000000e+00 0.000000e+00 0.000000e+00 0.000000e+00 
    74.5                0.000000e+00 0.000000e+00 0.000000e+00 0.000000e+00 0.000000e+00 0.000000e+00 0.000000e+00 0.000000e+00 0.000000e+00 0.000000e+00 0.000000e+00 0.000000e+00 
    75.5                0.000000e+00 0.000000e+00 0.000000e+00 0.000000e+00 0.000000e+00 0.000000e+00 0.000000e+00 0.000000e+00 0.000000e+00 0.000000e+00 0.000000e+00 0.000000e+00 
    76.5                0.000000e+00 0.000000e+00 0.000000e+00 0.000000e+00 0.000000e+00 0.000000e+00 0.000000e+00 0.000000e+00 0.000000e+00 0.000000e+00 0.000000e+00 0.000000e+00 
    77.5                0.000000e+00 0.000000e+00 0.000000e+00 0.000000e+00 0.000000e+00 0.000000e+00 0.000000e+00 0.000000e+00 0.000000e+00 0.000000e+00 0.000000e+00 0.000000e+00 
    78.5                0.000000e+00 0.000000e+00 0.000000e+00 0.000000e+00 0.000000e+00 0.000000e+00 0.000000e+00 0.000000e+00 0.000000e+00 0.000000e+00 0.000000e+00 0.000000e+00 
    79.5                0.000000e+00 0.000000e+00 0.000000e+00 0.000000e+00 0.000000e+00 0.000000e+00 0.000000e+00 0.000000e+00 0.000000e+00 0.000000e+00 0.000000e+00 0.000000e+00 


