# 80 rows of flux data
# 12 columns of flux data
# 
# total cross-sectional flux  4.512517e+00 /m^2/yr
#
#                             +x ram      -x wake      +y port -y starboard    +z zenith     -z nadir        Earth          Sun     anti-Sun      rot (x)      rot (y)      rot (z) 
# average speed (km/s)         26.81        14.32        25.93        25.93        23.97        23.97        26.48        25.93        25.93        25.30        24.41        25.58 
# total flux (#/m2/yr)  1.200106e+00 1.571311e-01 1.751933e+00 1.751947e+00 9.311362e-01 9.286450e-01 1.569295e+00 1.751942e+00 1.751960e+00 4.188307e+00 2.498679e+00 3.905326e+00 
# velocity (km/s)
     0.5                0.000000e+00 0.000000e+00 0.000000e+00 0.000000e+00 0.000000e+00 0.000000e+00 0.000000e+00 0.000000e+00 0.000000e+00 0.000000e+00 0.000000e+00 0.000000e+00 
     1.5                0.000000e+00 0.000000e+00 0.000000e+00 0.000000e+00 0.000000e+00 0.000000e+00 0.000000e+00 0.000000e+00 0.000000e+00 0.000000e+00 0.000000e+00 0.000000e+00 
     2.5                4.128404e-05 3.961280e-06 8.655755e-06 9.472838e-06 7.286499e-06 6.432908e-06 2.633035e-05 8.662435e-06 9.470722e-06 2.485602e-05 4.844375e-05 5.114447e-05 
     3.5                2.934557e-04 2.856719e-05 8.620955e-05 8.663282e-05 6.629210e-05 6.723665e-05 1.955452e-04 8.620669e-05 8.661323e-05 2.415299e-04 3.610640e-04 3.884119e-04 
     4.5                1.004198e-03 1.667000e-04 3.646229e-04 3.564326e-04 2.796077e-04 2.658519e-04 6.916614e-04 3.645496e-04 3.565182e-04 9.968610e-04 1.351113e-03 1.473190e-03 
     5.5                2.373505e-03 6.083357e-04 1.023960e-03 1.022490e-03 7.938846e-04 7.639517e-04 1.656121e-03 1.023933e-03 1.022656e-03 2.831614e-03 3.540727e-03 3.905917e-03 
     6.5                4.278961e-03 1.577709e-03 2.207657e-03 2.195350e-03 1.700650e-03 1.711540e-03 3.099532e-03 2.207906e-03 2.195416e-03 6.126613e-03 7.174558e-03 7.950802e-03 
     7.5                7.008707e-03 3.556635e-03 4.130762e-03 4.132008e-03 3.305021e-03 3.291286e-03 5.146726e-03 4.131047e-03 4.132141e-03 1.164139e-02 1.325936e-02 1.462755e-02 
     8.5                9.646440e-03 7.254542e-03 6.983681e-03 6.995966e-03 5.580679e-03 5.576247e-03 7.425910e-03 6.983438e-03 6.996085e-03 1.965814e-02 2.163375e-02 2.398002e-02 
     9.5                1.244811e-02 1.052333e-02 1.074474e-02 1.077156e-02 8.665861e-03 8.624408e-03 1.009563e-02 1.074450e-02 1.077161e-02 3.032412e-02 3.070291e-02 3.427434e-02 
    10.5                1.581603e-02 1.179522e-02 1.498849e-02 1.500673e-02 1.204224e-02 1.205095e-02 1.350217e-02 1.498849e-02 1.500664e-02 4.220292e-02 3.918198e-02 4.423675e-02 
    11.5                1.900031e-02 1.271165e-02 1.970367e-02 1.969498e-02 1.571428e-02 1.574426e-02 1.725429e-02 1.970333e-02 1.969496e-02 5.525943e-02 4.782085e-02 5.477219e-02 
    12.5                2.170338e-02 1.335501e-02 2.466973e-02 2.467120e-02 1.956715e-02 1.965399e-02 2.102342e-02 2.466990e-02 2.467067e-02 6.893246e-02 5.637763e-02 6.535429e-02 
    13.5                2.476853e-02 1.378042e-02 3.011138e-02 3.011936e-02 2.354570e-02 2.364456e-02 2.539859e-02 3.011140e-02 3.011911e-02 8.352991e-02 6.549376e-02 7.713273e-02 
    14.5                2.772961e-02 1.380662e-02 3.597456e-02 3.597256e-02 2.764888e-02 2.766718e-02 3.010247e-02 3.597448e-02 3.597255e-02 9.888797e-02 7.447728e-02 8.946601e-02 
    15.5                2.974826e-02 1.347044e-02 4.196815e-02 4.199807e-02 3.148559e-02 3.140902e-02 3.461113e-02 4.196789e-02 4.199812e-02 1.141169e-01 8.226488e-02 1.013218e-01 
    16.5                3.131625e-02 1.262806e-02 4.787743e-02 4.785408e-02 3.495102e-02 3.481511e-02 3.911677e-02 4.787739e-02 4.785404e-02 1.284504e-01 8.889599e-02 1.125653e-01 
    17.5                3.294555e-02 1.140953e-02 5.366613e-02 5.366993e-02 3.767510e-02 3.751838e-02 4.390591e-02 5.366583e-02 5.367002e-02 1.415002e-01 9.449654e-02 1.236531e-01 
    18.5                3.289413e-02 9.855884e-03 5.910549e-02 5.910309e-02 4.012744e-02 3.976236e-02 4.784655e-02 5.910524e-02 5.910364e-02 1.535384e-01 9.800123e-02 1.329064e-01 
    19.5                3.326761e-02 7.992480e-03 6.414137e-02 6.413144e-02 4.191239e-02 4.195003e-02 5.183843e-02 6.414191e-02 6.413090e-02 1.643637e-01 1.010191e-01 1.418150e-01 
    20.5                3.347958e-02 5.954951e-03 6.893801e-02 6.894241e-02 4.359340e-02 4.342733e-02 5.569448e-02 6.893817e-02 6.894269e-02 1.742357e-01 1.031305e-01 1.500772e-01 
    21.5                3.378253e-02 3.890455e-03 7.300750e-02 7.300289e-02 4.426891e-02 4.414541e-02 5.928501e-02 7.300751e-02 7.300283e-02 1.816244e-01 1.038764e-01 1.569093e-01 
    22.5                3.472106e-02 2.018579e-03 7.659298e-02 7.660071e-02 4.454173e-02 4.432088e-02 6.280379e-02 7.659280e-02 7.660048e-02 1.875899e-01 1.040511e-01 1.632263e-01 
    23.5                3.608001e-02 6.638276e-04 7.923852e-02 7.921593e-02 4.427619e-02 4.403449e-02 6.563443e-02 7.923846e-02 7.921590e-02 1.914109e-01 1.033749e-01 1.677898e-01 
    24.5                3.830720e-02 7.737687e-05 8.129529e-02 8.127995e-02 4.347755e-02 4.328198e-02 6.819342e-02 8.129515e-02 8.128003e-02 1.936195e-01 1.021836e-01 1.713685e-01 
    25.5                4.125287e-02 8.034382e-07 8.226190e-02 8.227879e-02 4.235980e-02 4.214846e-02 7.005983e-02 8.226175e-02 8.227884e-02 1.936691e-01 1.008079e-01 1.732927e-01 
    26.5                4.373899e-02 0.000000e+00 8.234360e-02 8.233209e-02 4.081575e-02 4.063329e-02 7.114649e-02 8.234337e-02 8.233219e-02 1.915771e-01 9.856649e-02 1.732778e-01 
    27.5                4.612370e-02 0.000000e+00 8.146268e-02 8.146392e-02 3.886552e-02 3.871858e-02 7.155699e-02 8.146260e-02 8.146408e-02 1.874976e-01 9.590157e-02 1.716870e-01 
    28.5                4.819456e-02 0.000000e+00 7.989172e-02 7.990071e-02 3.682925e-02 3.669441e-02 7.134641e-02 7.989162e-02 7.990096e-02 1.821333e-01 9.307967e-02 1.687989e-01 
    29.5                4.948164e-02 0.000000e+00 7.720695e-02 7.719948e-02 3.445214e-02 3.431810e-02 7.009425e-02 7.720698e-02 7.719979e-02 1.745334e-01 8.941428e-02 1.636427e-01 
    30.5                5.044730e-02 0.000000e+00 7.407981e-02 7.408077e-02 3.199685e-02 3.190796e-02 6.839999e-02 7.407993e-02 7.408118e-02 1.661578e-01 8.567580e-02 1.577085e-01 
    31.5                5.044299e-02 0.000000e+00 6.980615e-02 6.980624e-02 2.920660e-02 2.912057e-02 6.557625e-02 6.980646e-02 6.980682e-02 1.554004e-01 8.090894e-02 1.493722e-01 
    32.5                4.961916e-02 0.000000e+00 6.471778e-02 6.471296e-02 2.627687e-02 2.621941e-02 6.186726e-02 6.471808e-02 6.471360e-02 1.431018e-01 7.556219e-02 1.393352e-01 
    33.5                4.814845e-02 0.000000e+00 5.929552e-02 5.930392e-02 2.338917e-02 2.336368e-02 5.767233e-02 5.929593e-02 5.930458e-02 1.303103e-01 6.997241e-02 1.285559e-01 
    34.5                4.611456e-02 0.000000e+00 5.355501e-02 5.355831e-02 2.057390e-02 2.055080e-02 5.303462e-02 5.355546e-02 5.355904e-02 1.170429e-01 6.421487e-02 1.170594e-01 
    35.5                4.319648e-02 0.000000e+00 4.750851e-02 4.750005e-02 1.780814e-02 1.779524e-02 4.786481e-02 4.750923e-02 4.750095e-02 1.033143e-01 5.799225e-02 1.047003e-01 
    36.5                3.927663e-02 0.000000e+00 4.099718e-02 4.100182e-02 1.495624e-02 1.495479e-02 4.202832e-02 4.099801e-02 4.100275e-02 8.873226e-02 5.098449e-02 9.116241e-02 
    37.5                3.509911e-02 0.000000e+00 3.480193e-02 3.479881e-02 1.237177e-02 1.238120e-02 3.630147e-02 3.480272e-02 3.479971e-02 7.498064e-02 4.421843e-02 7.812350e-02 
    38.5                3.067467e-02 0.000000e+00 2.888885e-02 2.888532e-02 1.006151e-02 1.007834e-02 3.065696e-02 2.888970e-02 2.888625e-02 6.201887e-02 3.766525e-02 6.553469e-02 
    39.5                2.599286e-02 0.000000e+00 2.328966e-02 2.329024e-02 7.952996e-03 7.974213e-03 2.513720e-02 2.329056e-02 2.329114e-02 4.984023e-02 3.119800e-02 5.342540e-02 
    40.5                2.119138e-02 0.000000e+00 1.807940e-02 1.807817e-02 6.061076e-03 6.082369e-03 1.984774e-02 1.808025e-02 1.807901e-02 3.857075e-02 2.492569e-02 4.196480e-02 
    41.5                1.657524e-02 0.000000e+00 1.347811e-02 1.347751e-02 4.445761e-03 4.465881e-03 1.504676e-02 1.347896e-02 1.347826e-02 2.868113e-02 1.915819e-02 3.167877e-02 
    42.5                1.225534e-02 0.000000e+00 9.510189e-03 9.509099e-03 3.087311e-03 3.100383e-03 1.079457e-02 9.511044e-03 9.509789e-03 2.018823e-02 1.394578e-02 2.264659e-02 
    43.5                8.471337e-03 0.000000e+00 6.285302e-03 6.288061e-03 2.006627e-03 2.016468e-03 7.249123e-03 6.286009e-03 6.288603e-03 1.331489e-02 9.507403e-03 1.517214e-02 
    44.5                5.462681e-03 0.000000e+00 3.877066e-03 3.874124e-03 1.221303e-03 1.226684e-03 4.542012e-03 3.877631e-03 3.874524e-03 8.192615e-03 6.057046e-03 9.488661e-03 
    45.5                3.168281e-03 0.000000e+00 2.152382e-03 2.154514e-03 6.714773e-04 6.699584e-04 2.560435e-03 2.152864e-03 2.154805e-03 4.542280e-03 3.474450e-03 5.349345e-03 
    46.5                1.621518e-03 0.000000e+00 1.055283e-03 1.057494e-03 3.270240e-04 3.243719e-04 1.274925e-03 1.055624e-03 1.057674e-03 2.223884e-03 1.761051e-03 2.664344e-03 
    47.5                6.675773e-04 0.000000e+00 4.184874e-04 4.196404e-04 1.291132e-04 1.257361e-04 5.129297e-04 4.186879e-04 4.197372e-04 8.800656e-04 7.187129e-04 1.071803e-03 
    48.5                1.950659e-04 0.000000e+00 1.173861e-04 1.187747e-04 3.608943e-05 3.466392e-05 1.460721e-04 1.174697e-04 1.188110e-04 2.473998e-04 2.083823e-04 3.063573e-04 
    49.5                3.625479e-05 0.000000e+00 2.116718e-05 2.148180e-05 6.518083e-06 6.083746e-06 2.666426e-05 2.118835e-05 2.149060e-05 4.458748e-05 3.849584e-05 5.598231e-05 
    50.5                3.100999e-06 0.000000e+00 1.679191e-06 1.882175e-06 5.652887e-07 4.839030e-07 2.139438e-06 1.683428e-06 1.883706e-06 3.717587e-06 3.278369e-06 4.722457e-06 
    51.5                0.000000e+00 0.000000e+00 0.000000e+00 0.000000e+00 0.000000e+00 0.000000e+00 0.000000e+00 0.000000e+00 0.000000e+00 0.000000e+00 0.000000e+00 0.000000e+00 
    52.5                0.000000e+00 0.000000e+00 0.000000e+00 0.000000e+00 0.000000e+00 0.000000e+00 0.000000e+00 0.000000e+00 0.000000e+00 0.000000e+00 0.000000e+00 0.000000e+00 
    53.5                0.000000e+00 0.000000e+00 0.000000e+00 0.000000e+00 0.000000e+00 0.000000e+00 0.000000e+00 0.000000e+00 0.000000e+00 0.000000e+00 0.000000e+00 0.000000e+00 
    54.5                0.000000e+00 0.000000e+00 0.000000e+00 0.000000e+00 0.000000e+00 0.000000e+00 0.000000e+00 0.000000e+00 0.000000e+00 0.000000e+00 0.000000e+00 0.000000e+00 
    55.5                0.000000e+00 0.000000e+00 0.000000e+00 0.000000e+00 0.000000e+00 0.000000e+00 0.000000e+00 0.000000e+00 0.000000e+00 0.000000e+00 0.000000e+00 0.000000e+00 
    56.5                0.000000e+00 0.000000e+00 0.000000e+00 0.000000e+00 0.000000e+00 0.000000e+00 0.000000e+00 0.000000e+00 0.000000e+00 0.000000e+00 0.000000e+00 0.000000e+00 
    57.5                0.000000e+00 0.000000e+00 0.000000e+00 0.000000e+00 0.000000e+00 0.000000e+00 0.000000e+00 0.000000e+00 0.000000e+00 0.000000e+00 0.000000e+00 0.000000e+00 
    58.5                0.000000e+00 0.000000e+00 0.000000e+00 0.000000e+00 0.000000e+00 0.000000e+00 0.000000e+00 0.000000e+00 0.000000e+00 0.000000e+00 0.000000e+00 0.000000e+00 
    59.5                0.000000e+00 0.000000e+00 0.000000e+00 0.000000e+00 0.000000e+00 0.000000e+00 0.000000e+00 0.000000e+00 0.000000e+00 0.000000e+00 0.000000e+00 0.000000e+00 
    60.5                0.000000e+00 0.000000e+00 0.000000e+00 0.000000e+00 0.000000e+00 0.000000e+00 0.000000e+00 0.000000e+00 0.000000e+00 0.000000e+00 0.000000e+00 0.000000e+00 
    61.5                0.000000e+00 0.000000e+00 0.000000e+00 0.000000e+00 0.000000e+00 0.000000e+00 0.000000e+00 0.000000e+00 0.000000e+00 0.000000e+00 0.000000e+00 0.000000e+00 
    62.5                0.000000e+00 0.000000e+00 0.000000e+00 0.000000e+00 0.000000e+00 0.000000e+00 0.000000e+00 0.000000e+00 0.000000e+00 0.000000e+00 0.000000e+00 0.000000e+00 
    63.5                0.000000e+00 0.000000e+00 0.000000e+00 0.000000e+00 0.000000e+00 0.000000e+00 0.000000e+00 0.000000e+00 0.000000e+00 0.000000e+00 0.000000e+00 0.000000e+00 
    64.5                0.000000e+00 0.000000e+00 0.000000e+00 0.000000e+00 0.000000e+00 0.000000e+00 0.000000e+00 0.000000e+00 0.000000e+00 0.000000e+00 0.000000e+00 0.000000e+00 
    65.5                0.000000e+00 0.000000e+00 0.000000e+00 0.000000e+00 0.000000e+00 0.000000e+00 0.000000e+00 0.000000e+00 0.000000e+00 0.000000e+00 0.000000e+00 0.000000e+00 
    66.5                0.000000e+00 0.000000e+00 0.000000e+00 0.000000e+00 0.000000e+00 0.000000e+00 0.000000e+00 0.000000e+00 0.000000e+00 0.000000e+00 0.000000e+00 0.000000e+00 
    67.5                0.000000e+00 0.000000e+00 0.000000e+00 0.000000e+00 0.000000e+00 0.000000e+00 0.000000e+00 0.000000e+00 0.000000e+00 0.000000e+00 0.000000e+00 0.000000e+00 
    68.5                0.000000e+00 0.000000e+00 0.000000e+00 0.000000e+00 0.000000e+00 0.000000e+00 0.000000e+00 0.000000e+00 0.000000e+00 0.000000e+00 0.000000e+00 0.000000e+00 
    69.5                0.000000e+00 0.000000e+00 0.000000e+00 0.000000e+00 0.000000e+00 0.000000e+00 0.000000e+00 0.000000e+00 0.000000e+00 0.000000e+00 0.000000e+00 0.000000e+00 
    70.5                0.000000e+00 0.000000e+00 0.000000e+00 0.000000e+00 0.000000e+00 0.000000e+00 0.000000e+00 0.000000e+00 0.000000e+00 0.000000e+00 0.000000e+00 0.000000e+00 
    71.5                0.000000e+00 0.000000e+00 0.000000e+00 0.000000e+00 0.000000e+00 0.000000e+00 0.000000e+00 0.000000e+00 0.000000e+00 0.000000e+00 0.000000e+00 0.000000e+00 
    72.5                0.000000e+00 0.000000e+00 0.000000e+00 0.000000e+00 0.000000e+00 0.000000e+00 0.000000e+00 0.000000e+00 0.000000e+00 0.000000e+00 0.000000e+00 0.000000e+00 
    73.5                0.000000e+00 0.000000e+00 0.000000e+00 0.000000e+00 0.000000e+00 0.000000e+00 0.000000e+00 0.000000e+00 0.000000e+00 0.000000e+00 0.000000e+00 0.000000e+00 
    74.5                0.000000e+00 0.000000e+00 0.000000e+00 0.000000e+00 0.000000e+00 0.000000e+00 0.000000e+00 0.000000e+00 0.000000e+00 0.000000e+00 0.000000e+00 0.000000e+00 
    75.5                0.000000e+00 0.000000e+00 0.000000e+00 0.000000e+00 0.000000e+00 0.000000e+00 0.000000e+00 0.000000e+00 0.000000e+00 0.000000e+00 0.000000e+00 0.000000e+00 
    76.5                0.000000e+00 0.000000e+00 0.000000e+00 0.000000e+00 0.000000e+00 0.000000e+00 0.000000e+00 0.000000e+00 0.000000e+00 0.000000e+00 0.000000e+00 0.000000e+00 
    77.5                0.000000e+00 0.000000e+00 0.000000e+00 0.000000e+00 0.000000e+00 0.000000e+00 0.000000e+00 0.000000e+00 0.000000e+00 0.000000e+00 0.000000e+00 0.000000e+00 
    78.5                0.000000e+00 0.000000e+00 0.000000e+00 0.000000e+00 0.000000e+00 0.000000e+00 0.000000e+00 0.000000e+00 0.000000e+00 0.000000e+00 0.000000e+00 0.000000e+00 
    79.5                0.000000e+00 0.000000e+00 0.000000e+00 0.000000e+00 0.000000e+00 0.000000e+00 0.000000e+00 0.000000e+00 0.000000e+00 0.000000e+00 0.000000e+00 0.000000e+00 


